EXPLAIN
TAG	POTENTIODYNAMIC
TITLE	LABEL	Potentiodynamic Scan	Test Identifier
DATE	LABEL	6.2.2023	Date
TIME	LABEL	15:24:42	Time
NOTES	NOTES	1	Notes...
	
PSTAT	PSTAT	REF3000-19129	Potentiostat
VINIT	POTEN	0.00000E+000	F	Initial E (V)
VFINAL	POTEN	-1.50000E+000	F	Final E (V)
SCANRATE	QUANT	1.00000E+001	Scan Rate (mV/s)
SAMPLETIME	QUANT	1.00000E+000	Sample Period (s)
AREA	QUANT	1.00000E+000	Sample Area (cm^2)
DENSITY	QUANT	7.87000E+000	Density (g/cm^3)
EQUIV	QUANT	2.79200E+001	Equiv. Wt
IRCOMP	TOGGLE	T	IR Comp
EOC	QUANT	0	Open Circuit (V)
SEQUENCER	TOGGLE	TRUE	Run as Sequence
PSTATMODEL	IQUANT	5	Pstat Model
PSTATSECTION	LABEL	REF3000-19129	Pstat Section
PSTATSERIALNO	LABEL	19129	Pstat Serial Number
CTRLMODE	IQUANT	1	Control Mode
ELECTROMETER	IQUANT	0	RE=0 or CS=1
IESTAB	IQUANT	2	I/E Stability
CASPEED	IQUANT	4	Control Amp Speed
CONVENTION	IQUANT	1	Current Convention
ICHRANGE	IQUANT	2	Ich Range
ICHRANGEMODE	TOGGLE	T	Ich Auto Range
ICHOFFSETENABLE	TOGGLE	F	Ich Offset Enable
ICHOFFSET	QUANT	0	Ich Offset (V)
ICHFILTER	IQUANT	3	Ich Filter
VCHRANGE	IQUANT	3	Vch Range
VCHRANGEMODE	TOGGLE	T	Vch Auto Range
VCHOFFSETENABLE	TOGGLE	F	Vch Offset Enable
VCHOFFSET	QUANT	0	Vch Offset (V)
VCHFILTER	IQUANT	1	Vch Filter
ACHRANGE	IQUANT	2	Ach Range
ACHOFFSETENABLE	TOGGLE	F	Ach Offset Enable
ACHOFFSET	QUANT	0	Ach Offset (V)
ACHFILTER	IQUANT	1	Ach Filter
IERANGELOWERLIMIT	IQUANT	4	I/E Range Lower Limit
IERANGEMODE	TOGGLE	T	I/E AutoRange
IERANGE	IQUANT	11	I/E Range
POSFEEDENABLE	TOGGLE	F	Positive Feedback IR Comp
POSFEEDRESISTANCE	QUANT	0	Positive Feedback Resistance (ohm)
ACHSELECT	IQUANT	0	Ach Select
SENSECABLEID	IQUANT	14	Sense Cable ID
PWRCABLEID	IQUANT	13	Power Cable ID
DCCALDATE	LABEL	11/22/2022	DC Calibration Date
ACCALDATE	LABEL		AC Calibration Date
THERMOSELECT	IQUANT	1	Thermo Select
FRAMEWORKVERSION	QUANT	7.07	Framework Version
INSTRUMENTVERSION	LABEL	4.35	Instrument Version
COMPLIANCEVOLTAGE	IQUANT	0	Compliance Voltage
CURVE	TABLE	151
	Pt	T	Vf	Im	Vu	Sig	Ach	IERange	Over	Temp
	#	s	V vs. Ref.	A	V	V	V	#	bits	deg C
	0	1	1.42971E-003	-1.09299E-003	-1.26956E-002	-5.96046E-008	2.64411E-004	9	..........a	-327.68
	1	2	-9.08447E-003	-1.09550E-003	-1.24339E-002	-1.00001E-002	2.76311E-004	9	..........a	-327.68
	2	3	-1.92106E-002	-1.13649E-003	-1.31388E-002	-2.00001E-002	2.72478E-004	9	..........a	-327.68
	3	4	-2.84906E-002	-1.18106E-003	-1.35810E-002	-3.00001E-002	2.65161E-004	9	..........a	-327.68
	4	5	-3.82506E-002	-1.26332E-003	-1.45467E-002	-4.00001E-002	2.68011E-004	9	..........a	-327.68
	5	6	-4.75106E-002	-1.35352E-003	-1.55092E-002	-5.00001E-002	2.70128E-004	9	..........a	-327.68
	6	7	-5.70206E-002	-1.47806E-003	-1.69677E-002	-6.00001E-002	2.66928E-004	9	..........a	-327.68
	7	8	-6.64506E-002	-1.62212E-003	-1.85017E-002	-7.00001E-002	2.70411E-004	9	..........a	-327.68
	8	9	-7.57906E-002	-1.79961E-003	-2.06295E-002	-8.00001E-002	2.70611E-004	9	..........a	-327.68
	9	10	-8.49906E-002	-2.00220E-003	-2.28919E-002	-9.00001E-002	2.72811E-004	9	..........a	-327.68
	10	11	-9.44606E-002	-2.25192E-003	-2.56213E-002	-1.00000E-001	2.60378E-004	9	..........a	-327.68
	11	12	-1.03511E-001	-2.53279E-003	-2.87706E-002	-1.10000E-001	2.64294E-004	9	..........a	-327.68
	12	13	-1.12341E-001	-2.85395E-003	-3.23862E-002	-1.20000E-001	2.57144E-004	9	..........a	-327.68
	13	14	-1.21355E-001	-3.24507E-003	-3.69890E-002	-1.30000E-001	2.84294E-004	10	..........a	-327.68
	14	15	-1.30425E-001	-3.67826E-003	-4.16512E-002	-1.40000E-001	2.82711E-004	10	..........a	-327.68
	15	16	-1.39415E-001	-4.17695E-003	-4.71409E-002	-1.50000E-001	2.99344E-004	10	..........a	-327.68
	16	17	-1.48085E-001	-4.72054E-003	-5.31591E-002	-1.60000E-001	3.02878E-004	10	..........a	-327.68
	17	18	-1.56905E-001	-5.32512E-003	-5.98072E-002	-1.70000E-001	2.70528E-004	10	..........a	-327.68
	18	19	-1.65465E-001	-5.97696E-003	-6.71814E-002	-1.80000E-001	3.15811E-004	10	..........a	-327.68
	19	20	-1.74505E-001	-6.66807E-003	-7.46071E-002	-1.90000E-001	3.21711E-004	10	..........a	-327.68
	20	21	-1.83855E-001	-7.41700E-003	-8.27177E-002	-2.00000E-001	3.12344E-004	10	..........a	-327.68
	21	22	-1.93088E-001	-8.15664E-003	-9.06061E-002	-2.10000E-001	3.08378E-004	10	..........a	-327.68
	22	23	-2.03088E-001	-8.94537E-003	-9.88653E-002	-2.20000E-001	3.13311E-004	10	..........a	-327.68
	23	24	-2.12088E-001	-9.70683E-003	-1.07580E-001	-2.30000E-001	3.10694E-004	10	..........a	-327.68
	24	25	-2.21488E-001	-1.04948E-002	-1.16392E-001	-2.40000E-001	3.15878E-004	10	..........a	-327.68
	25	26	-2.31488E-001	-1.13033E-002	-1.25026E-001	-2.50000E-001	3.18711E-004	10	..........a	-327.68
	26	27	-2.41788E-001	-1.21267E-002	-1.33734E-001	-2.60000E-001	3.15344E-004	10	..........a	-327.68
	27	28	-2.51788E-001	-1.29197E-002	-1.42271E-001	-2.70000E-001	3.12344E-004	10	..........a	-327.68
	28	29	-2.61288E-001	-1.37281E-002	-1.51357E-001	-2.80000E-001	3.12111E-004	10	..........a	-327.68
	29	30	-2.71888E-001	-1.45130E-002	-1.59216E-001	-2.90000E-001	4.49111E-004	10	..........a	-327.68
	30	31	-2.82088E-001	-1.53179E-002	-1.67999E-001	-3.00000E-001	4.59678E-004	10	..........a	-327.68
	31	32	-2.91488E-001	-1.60603E-002	-1.76504E-001	-3.10000E-001	4.49411E-004	10	..........a	-327.68
	32	33	-3.02088E-001	-1.68335E-002	-1.84675E-001	-3.20000E-001	4.60111E-004	10	..........a	-327.68
	33	34	-3.12388E-001	-1.75787E-002	-1.92825E-001	-3.30000E-001	4.61444E-004	10	..........a	-327.68
	34	35	-3.22888E-001	-1.82944E-002	-2.00530E-001	-3.40000E-001	4.72944E-004	10	..........a	-327.68
	35	36	-3.33088E-001	-1.89826E-002	-2.08336E-001	-3.50000E-001	4.74244E-004	10	..........a	-327.68
	36	37	-3.44489E-001	-1.96363E-002	-2.14599E-001	-3.60000E-001	4.55928E-004	10	..........a	-327.68
	37	38	-3.55288E-001	-2.02748E-002	-2.21575E-001	-3.70000E-001	4.59511E-004	10	..........a	-327.68
	38	39	-3.65888E-001	-2.08099E-002	-2.27169E-001	-3.80000E-001	4.69028E-004	10	..........a	-327.68
	39	40	-3.76388E-001	-2.13729E-002	-2.33641E-001	-3.90000E-001	4.59378E-004	10	..........a	-327.68
	40	41	-3.87288E-001	-2.18456E-002	-2.38432E-001	-4.00000E-001	4.62511E-004	10	..........a	-327.68
	41	42	-3.98488E-001	-2.23484E-002	-2.43730E-001	-4.10000E-001	4.70011E-004	10	..........a	-327.68
	42	43	-4.08888E-001	-2.27416E-002	-2.48089E-001	-4.20000E-001	4.52444E-004	10	..........a	-327.68
	43	44	-4.19488E-001	-2.31557E-002	-2.52697E-001	-4.30000E-001	4.56611E-004	10	..........a	-327.68
	44	45	-4.30088E-001	-2.35056E-002	-2.56267E-001	-4.40000E-001	4.52644E-004	10	..........a	-327.68
	45	46	-4.41288E-001	-2.38732E-002	-2.59871E-001	-4.50000E-001	4.64511E-004	10	..........a	-327.68
	46	47	-4.51188E-001	-2.41760E-002	-2.63392E-001	-4.60000E-001	4.65728E-004	10	..........a	-327.68
	47	48	-4.61888E-001	-2.44762E-002	-2.66114E-001	-4.70000E-001	4.55928E-004	10	..........a	-327.68
	48	49	-4.72488E-001	-2.47954E-002	-2.69353E-001	-4.80000E-001	4.75611E-004	10	..........a	-327.68
	49	50	-4.82088E-001	-2.50391E-002	-2.72249E-001	-4.90000E-001	4.61661E-004	10	..........a	-327.68
	50	51	-4.92088E-001	-2.53425E-002	-2.75436E-001	-5.00000E-001	4.73061E-004	10	..........a	-327.68
	51	52	-5.01688E-001	-2.56342E-002	-2.78824E-001	-5.10000E-001	4.67411E-004	10	..........a	-327.68
	52	53	-5.11488E-001	-2.59728E-002	-2.82240E-001	-5.20000E-001	4.45194E-004	10	..........a	-327.68
	53	54	-5.20088E-001	-2.63438E-002	-2.86924E-001	-5.30000E-001	4.52678E-004	10	..........a	-327.68
	54	55	-5.29288E-001	-2.67767E-002	-2.91113E-001	-5.40000E-001	4.64194E-004	10	..........a	-327.68
	55	56	-5.37770E-001	-2.73163E-002	-2.97735E-001	-5.50000E-001	3.15144E-004	11	..........a	-327.68
	56	57	-5.45770E-001	-2.78456E-002	-3.03636E-001	-5.60000E-001	3.26144E-004	11	..........a	-327.68
	57	58	-5.55370E-001	-2.85746E-002	-3.10892E-001	-5.70000E-001	3.26494E-004	11	..........a	-327.68
	58	59	-5.63570E-001	-2.92554E-002	-3.18710E-001	-5.80000E-001	3.23878E-004	11	..........a	-327.68
	59	60	-5.72570E-001	-3.00017E-002	-3.26838E-001	-5.90000E-001	3.25294E-004	11	..........a	-327.68
	60	61	-5.82470E-001	-3.07419E-002	-3.34736E-001	-6.00000E-001	3.35194E-004	11	..........a	-327.68
	61	62	-5.92570E-001	-3.14718E-002	-3.42604E-001	-6.10000E-001	2.98894E-004	11	..........a	-327.68
	62	63	-6.03770E-001	-3.21596E-002	-3.49317E-001	-6.20000E-001	3.35928E-004	11	..........a	-327.68
	63	64	-6.14270E-001	-3.28222E-002	-3.56558E-001	-6.30000E-001	3.35011E-004	11	..........a	-327.68
	64	65	-6.24170E-001	-3.33868E-002	-3.63414E-001	-6.40000E-001	3.31794E-004	11	..........a	-327.68
	65	66	-6.35570E-001	-3.39843E-002	-3.69025E-001	-6.50000E-001	2.62894E-004	11	..........a	-327.68
	66	67	-6.46270E-001	-3.45431E-002	-3.75465E-001	-6.60000E-001	3.23728E-004	11	..........a	-327.68
	67	68	-6.57370E-001	-3.49993E-002	-3.79898E-001	-6.70000E-001	3.32994E-004	11	..........a	-327.68
	68	69	-6.67970E-001	-3.55127E-002	-3.85727E-001	-6.80000E-001	3.30578E-004	11	..........a	-327.68
	69	70	-6.78770E-001	-3.58893E-002	-3.89427E-001	-6.90000E-001	3.23111E-004	11	..........a	-327.68
	70	71	-6.89170E-001	-3.63549E-002	-3.94801E-001	-7.00000E-001	3.43078E-004	11	..........a	-327.68
	71	72	-6.99571E-001	-3.66805E-002	-3.98112E-001	-7.10000E-001	3.39078E-004	11	..........a	-327.68
	72	73	-7.10470E-001	-3.71092E-002	-4.02446E-001	-7.20000E-001	3.30278E-004	11	..........a	-327.68
	73	74	-7.19770E-001	-3.73981E-002	-4.06300E-001	-7.30000E-001	3.37661E-004	11	..........a	-327.68
	74	75	-7.31471E-001	-3.77835E-002	-4.09096E-001	-7.40000E-001	2.52628E-004	11	..........a	-327.68
	75	76	-7.40970E-001	-3.81069E-002	-4.13371E-001	-7.50000E-001	3.30094E-004	11	..........a	-327.68
	76	77	-7.51170E-001	-3.83825E-002	-4.15917E-001	-7.60000E-001	3.23161E-004	11	..........a	-327.68
	77	78	-7.61370E-001	-3.87479E-002	-4.19980E-001	-7.70000E-001	3.27578E-004	11	..........a	-327.68
	78	79	-7.70971E-001	-3.90344E-002	-4.23105E-001	-7.80000E-001	2.61928E-004	11	..........a	-327.68
	79	80	-7.80670E-001	-3.94024E-002	-4.27319E-001	-7.90000E-001	3.21644E-004	11	..........a	-327.68
	80	81	-7.90870E-001	-3.97235E-002	-4.30101E-001	-8.00000E-001	4.34911E-004	11	..........a	-327.68
	81	82	-8.00870E-001	-4.01288E-002	-4.34259E-001	-8.10000E-001	4.83778E-004	11	..........a	-327.68
	82	83	-8.10171E-001	-4.04465E-002	-4.37675E-001	-8.20000E-001	4.27811E-004	11	..........a	-327.68
	83	84	-8.19270E-001	-4.08918E-002	-4.42806E-001	-8.30000E-001	4.48061E-004	11	..........a	-327.68
	84	85	-8.29370E-001	-4.12984E-002	-4.46323E-001	-8.40000E-001	4.24444E-004	11	..........a	-327.68
	85	86	-8.37770E-001	-4.18318E-002	-4.52810E-001	-8.50000E-001	4.47078E-004	11	..........a	-327.68
	86	87	-8.46470E-001	-4.22685E-002	-4.57601E-001	-8.60000E-001	4.58878E-004	11	..........a	-327.68
	87	88	-8.56570E-001	-4.29347E-002	-4.64063E-001	-8.70000E-001	3.83361E-004	11	..........a	-327.68
	88	89	-8.65370E-001	-4.34719E-002	-4.69886E-001	-8.80000E-001	4.34561E-004	11	..........a	-327.68
	89	90	-8.74671E-001	-4.41563E-002	-4.77016E-001	-8.90000E-001	3.91361E-004	11	..........a	-327.68
	90	91	-8.83070E-001	-4.47985E-002	-4.84600E-001	-9.00000E-001	4.37628E-004	11	..........a	-327.68
	91	92	-8.92570E-001	-4.55355E-002	-4.92072E-001	-9.10000E-001	4.04044E-004	11	..........a	-327.68
	92	93	-9.02170E-001	-4.62893E-002	-5.00042E-001	-9.20000E-001	4.33761E-004	11	..........a	-327.68
	93	94	-9.11170E-001	-4.70603E-002	-5.08595E-001	-9.30000E-001	4.21261E-004	11	..........a	-327.68
	94	95	-9.20670E-001	-4.78570E-002	-5.16948E-001	-9.40000E-001	4.78844E-004	11	..........a	-327.68
	95	96	-9.30570E-001	-4.86809E-002	-5.25540E-001	-9.50000E-001	4.39028E-004	11	..........a	-327.68
	96	97	-9.39771E-001	-4.94934E-002	-5.34897E-001	-9.60000E-001	5.38378E-004	11	..........a	-327.68
	97	98	-9.50071E-001	-5.02987E-002	-5.42868E-001	-9.70000E-001	4.65494E-004	11	..........a	-327.68
	98	99	-9.60070E-001	-5.11756E-002	-5.52443E-001	-9.80000E-001	5.33694E-004	11	..........a	-327.68
	99	100	-9.70070E-001	-5.19094E-002	-5.60274E-001	-9.90000E-001	4.03161E-004	11	..........a	-327.68
	100	101	-9.80671E-001	-5.27699E-002	-5.69382E-001	-1.00000E+000	5.12194E-004	11	..........a	-327.68
	101	102	-9.90870E-001	-5.34635E-002	-5.76744E-001	-1.01000E+000	5.29661E-004	11	..........a	-327.68
	102	103	-1.00167E+000	-5.42674E-002	-5.85264E-001	-1.02000E+000	5.48044E-004	11	..........a	-327.68
	103	104	-1.01267E+000	-5.48795E-002	-5.91532E-001	-1.03000E+000	5.28344E-004	11	..........a	-327.68
	104	105	-1.02337E+000	-5.55764E-002	-5.99084E-001	-1.04000E+000	5.07161E-004	11	..........a	-327.68
	105	106	-1.03517E+000	-5.60663E-002	-6.03858E-001	-1.05000E+000	8.70211E-004	11	..........a	-327.68
	106	107	-1.04617E+000	-5.66284E-002	-6.10407E-001	-1.06000E+000	8.98394E-004	11	..........a	-327.68
	107	108	-1.05807E+000	-5.69438E-002	-6.13195E-001	-1.07000E+000	7.31394E-004	11	..........a	-327.68
	108	109	-1.06957E+000	-5.73928E-002	-6.18367E-001	-1.08000E+000	8.90428E-004	11	..........a	-327.68
	109	110	-1.08147E+000	-5.75049E-002	-6.19139E-001	-1.09000E+000	9.00961E-004	11	..........a	-327.68
	110	111	-1.09437E+000	-5.77523E-002	-6.21366E-001	-1.10000E+000	8.87244E-004	11	..........a	-327.68
	111	112	-1.10607E+000	-5.76803E-002	-6.20549E-001	-1.11000E+000	8.79578E-004	11	..........a	-327.68
	112	113	-1.11827E+000	-5.76451E-002	-6.20315E-001	-1.12000E+000	8.77778E-004	11	..........a	-327.68
	113	114	-1.13077E+000	-5.73977E-002	-6.17109E-001	-1.13000E+000	8.97528E-004	11	..........a	-327.68
	114	115	-1.14297E+000	-5.71470E-002	-6.14663E-001	-1.14000E+000	8.79011E-004	11	..........a	-327.68
	115	116	-1.15447E+000	-5.67003E-002	-6.09855E-001	-1.15000E+000	8.96411E-004	11	..........a	-327.68
	116	117	-1.16677E+000	-5.63133E-002	-6.05299E-001	-1.16000E+000	3.18528E-004	11	..........a	-327.68
	117	118	-1.17727E+000	-5.57687E-002	-6.00005E-001	-1.17000E+000	3.19778E-004	11	..........a	-327.68
	118	119	-1.18817E+000	-5.52592E-002	-5.94472E-001	-1.18000E+000	3.26561E-004	11	..........a	-327.68
	119	120	-1.19897E+000	-5.47490E-002	-5.88406E-001	-1.19000E+000	3.21878E-004	11	..........a	-327.68
	120	121	-1.20867E+000	-5.42365E-002	-5.83237E-001	-1.20000E+000	3.25378E-004	11	..........a	-327.68
	121	122	-1.21787E+000	-5.37356E-002	-5.77841E-001	-1.21000E+000	3.17294E-004	11	..........a	-327.68
	122	123	-1.22677E+000	-5.33122E-002	-5.73726E-001	-1.22000E+000	3.28178E-004	11	..........a	-327.68
	123	124	-1.23547E+000	-5.29248E-002	-5.69668E-001	-1.23000E+000	3.23161E-004	11	..........a	-327.68
	124	125	-1.24427E+000	-5.26727E-002	-5.66854E-001	-1.24000E+000	3.30228E-004	11	..........a	-327.68
	125	126	-1.25207E+000	-5.24587E-002	-5.65045E-001	-1.25000E+000	3.15978E-004	11	..........a	-327.68
	126	127	-1.26007E+000	-5.23643E-002	-5.64014E-001	-1.26000E+000	3.16028E-004	11	..........a	-327.68
	127	128	-1.26847E+000	-5.23574E-002	-5.63900E-001	-1.27000E+000	3.18678E-004	11	..........a	-327.68
	128	129	-1.27617E+000	-5.24602E-002	-5.65220E-001	-1.28000E+000	3.15094E-004	11	..........a	-327.68
	129	130	-1.28437E+000	-5.26300E-002	-5.66972E-001	-1.29000E+000	3.23211E-004	11	..........a	-327.68
	130	131	-1.29167E+000	-5.29440E-002	-5.70886E-001	-1.30000E+000	3.21561E-004	11	..........a	-327.68
	131	132	-1.29987E+000	-5.32800E-002	-5.74269E-001	-1.31000E+000	3.24144E-004	11	..........a	-327.68
	132	133	-1.30817E+000	-5.38440E-002	-5.80134E-001	-1.32000E+000	3.29428E-004	11	..........a	-327.68
	133	134	-1.31557E+000	-5.43214E-002	-5.85762E-001	-1.33000E+000	3.14744E-004	11	..........a	-327.68
	134	135	-1.32357E+000	-5.50419E-002	-5.93764E-001	-1.34000E+000	3.13361E-004	11	..........a	-327.68
	135	136	-1.33207E+000	-5.57081E-002	-6.00921E-001	-1.35000E+000	3.11411E-004	11	..........a	-327.68
	136	137	-1.34107E+000	-5.65974E-002	-6.09816E-001	-1.36000E+000	3.25628E-004	11	..........a	-327.68
	137	138	-1.34857E+000	-5.74078E-002	-6.19539E-001	-1.37000E+000	3.25728E-004	11	..........a	-327.68
	138	139	-1.35667E+000	-5.83484E-002	-6.30231E-001	-1.38000E+000	3.20361E-004	11	..........a	-327.68
	139	140	-1.36627E+000	-5.93722E-002	-6.40331E-001	-1.39000E+000	3.23211E-004	11	..........a	-327.68
	140	141	-1.37437E+000	-6.04666E-002	-6.52926E-001	-1.40000E+000	3.23028E-004	11	..........a	-327.68
	141	142	-1.38277E+000	-6.15379E-002	-6.64566E-001	-1.41000E+000	3.32211E-004	11	..........a	-327.68
	142	143	-1.39157E+000	-6.27998E-002	-6.78456E-001	-1.42000E+000	3.10594E-004	11	..........a	-327.68
	143	144	-1.40037E+000	-6.39911E-002	-6.91190E-001	-1.43000E+000	2.86478E-004	11	..........a	-327.68
	144	145	-1.40917E+000	-6.53661E-002	-7.06361E-001	-1.44000E+000	3.04744E-004	11	..........a	-327.68
	145	146	-1.41777E+000	-6.66834E-002	-7.20502E-001	-1.45000E+000	2.92494E-004	11	..........a	-327.68
	146	147	-1.42677E+000	-6.81485E-002	-7.36396E-001	-1.46000E+000	3.08694E-004	11	..........a	-327.68
	147	148	-1.43527E+000	-6.95805E-002	-7.51992E-001	-1.47000E+000	3.03094E-004	11	..........a	-327.68
	148	149	-1.44447E+000	-7.11482E-002	-7.68895E-001	-1.48000E+000	3.10794E-004	11	..........a	-327.68
	149	150	-1.45327E+000	-7.26854E-002	-7.85587E-001	-1.49000E+000	3.08094E-004	11	..........a	-327.68
	150	151	-1.46227E+000	-7.43442E-002	-8.03534E-001	-1.50000E+000	3.08261E-004	11	..........a	-327.68
