EXPLAIN
TAG	POTENTIODYNAMIC
TITLE	LABEL	Potentiodynamic Scan	Test Identifier
DATE	LABEL	7.2.2023	Date
TIME	LABEL	9:12:19	Time
NOTES	NOTES	1	Notes...
	
PSTAT	PSTAT	REF3000-19129	Potentiostat
VINIT	POTEN	0.00000E+000	F	Initial E (V)
VFINAL	POTEN	-1.50000E+000	F	Final E (V)
SCANRATE	QUANT	1.00000E+001	Scan Rate (mV/s)
SAMPLETIME	QUANT	1.00000E+000	Sample Period (s)
AREA	QUANT	1.00000E+000	Sample Area (cm^2)
DENSITY	QUANT	7.87000E+000	Density (g/cm^3)
EQUIV	QUANT	2.79200E+001	Equiv. Wt
IRCOMP	TOGGLE	T	IR Comp
EOC	QUANT	0	Open Circuit (V)
SEQUENCER	TOGGLE	TRUE	Run as Sequence
PSTATMODEL	IQUANT	5	Pstat Model
PSTATSECTION	LABEL	REF3000-19129	Pstat Section
PSTATSERIALNO	LABEL	19129	Pstat Serial Number
CTRLMODE	IQUANT	1	Control Mode
ELECTROMETER	IQUANT	0	RE=0 or CS=1
IESTAB	IQUANT	2	I/E Stability
CASPEED	IQUANT	4	Control Amp Speed
CONVENTION	IQUANT	1	Current Convention
ICHRANGE	IQUANT	2	Ich Range
ICHRANGEMODE	TOGGLE	T	Ich Auto Range
ICHOFFSETENABLE	TOGGLE	F	Ich Offset Enable
ICHOFFSET	QUANT	0	Ich Offset (V)
ICHFILTER	IQUANT	3	Ich Filter
VCHRANGE	IQUANT	3	Vch Range
VCHRANGEMODE	TOGGLE	T	Vch Auto Range
VCHOFFSETENABLE	TOGGLE	F	Vch Offset Enable
VCHOFFSET	QUANT	0	Vch Offset (V)
VCHFILTER	IQUANT	1	Vch Filter
ACHRANGE	IQUANT	2	Ach Range
ACHOFFSETENABLE	TOGGLE	F	Ach Offset Enable
ACHOFFSET	QUANT	0	Ach Offset (V)
ACHFILTER	IQUANT	1	Ach Filter
IERANGELOWERLIMIT	IQUANT	4	I/E Range Lower Limit
IERANGEMODE	TOGGLE	T	I/E AutoRange
IERANGE	IQUANT	11	I/E Range
POSFEEDENABLE	TOGGLE	F	Positive Feedback IR Comp
POSFEEDRESISTANCE	QUANT	0	Positive Feedback Resistance (ohm)
ACHSELECT	IQUANT	0	Ach Select
SENSECABLEID	IQUANT	14	Sense Cable ID
PWRCABLEID	IQUANT	13	Power Cable ID
DCCALDATE	LABEL	11/22/2022	DC Calibration Date
ACCALDATE	LABEL		AC Calibration Date
THERMOSELECT	IQUANT	1	Thermo Select
FRAMEWORKVERSION	QUANT	7.07	Framework Version
INSTRUMENTVERSION	LABEL	4.35	Instrument Version
COMPLIANCEVOLTAGE	IQUANT	0	Compliance Voltage
CURVE	TABLE	151
	Pt	T	Vf	Im	Vu	Sig	Ach	IERange	Over	Temp
	#	s	V vs. Ref.	A	V	V	V	#	bits	deg C
	0	1	-2.97029E-003	-6.82812E-004	-4.95027E-003	-5.96046E-008	5.96494E-004	9	..........a	-327.68
	1	2	-8.98447E-003	-6.99543E-004	-8.78103E-003	-1.00001E-002	5.93094E-004	9	..........a	-327.68
	2	3	-1.64606E-002	-6.96527E-004	-8.34947E-003	-2.00001E-002	5.97894E-004	9	..........a	-327.68
	3	4	-2.88206E-002	-8.07165E-004	-9.71630E-003	-3.00001E-002	6.05078E-004	9	..........a	-327.68
	4	5	-3.75806E-002	-8.61455E-004	-1.04285E-002	-4.00001E-002	5.77928E-004	9	..........a	-327.68
	5	6	-4.77606E-002	-9.72201E-004	-1.17263E-002	-5.00001E-002	5.90128E-004	9	..........a	-327.68
	6	7	-5.71806E-002	-1.08850E-003	-1.30370E-002	-6.00001E-002	5.89428E-004	9	..........a	-327.68
	7	8	-6.66406E-002	-1.23659E-003	-1.47978E-002	-7.00001E-002	5.90628E-004	9	..........a	-327.68
	8	9	-7.59406E-002	-1.41034E-003	-1.67247E-002	-8.00001E-002	6.12811E-004	9	..........a	-327.68
	9	10	-8.51606E-002	-1.62206E-003	-1.92263E-002	-9.00001E-002	6.20594E-004	9	..........a	-327.68
	10	11	-9.41606E-002	-1.87121E-003	-2.21843E-002	-1.00000E-001	5.74244E-004	9	..........a	-327.68
	11	12	-1.03361E-001	-2.16843E-003	-2.54425E-002	-1.10000E-001	6.01694E-004	9	..........a	-327.68
	12	13	-1.12321E-001	-2.51584E-003	-2.94200E-002	-1.20000E-001	5.95144E-004	9	..........a	-327.68
	13	14	-1.20941E-001	-2.91269E-003	-3.39938E-002	-1.30000E-001	6.23728E-004	9	..........a	-327.68
	14	15	-1.29685E-001	-3.38347E-003	-3.95924E-002	-1.40000E-001	5.76311E-004	10	..........a	-327.68
	15	16	-1.38465E-001	-3.90771E-003	-4.53017E-002	-1.50000E-001	6.17311E-004	10	..........a	-327.68
	16	17	-1.47185E-001	-4.50759E-003	-5.20658E-002	-1.60000E-001	6.53728E-004	10	..........a	-327.68
	17	18	-1.55585E-001	-5.15878E-003	-5.94356E-002	-1.70000E-001	6.59611E-004	10	..........a	-327.68
	18	19	-1.64185E-001	-5.88262E-003	-6.75502E-002	-1.80000E-001	6.67411E-004	10	..........a	-327.68
	19	20	-1.72885E-001	-6.66448E-003	-7.63189E-002	-1.90000E-001	6.44678E-004	10	..........a	-327.68
	20	21	-1.81525E-001	-7.49391E-003	-8.56422E-002	-2.00000E-001	6.43228E-004	10	..........a	-327.68
	21	22	-1.90388E-001	-8.36853E-003	-9.54416E-002	-2.10000E-001	6.50111E-004	10	..........a	-327.68
	22	23	-1.99988E-001	-9.29940E-003	-1.05325E-001	-2.20000E-001	6.40811E-004	10	..........a	-327.68
	23	24	-2.07988E-001	-1.02411E-002	-1.17032E-001	-2.30000E-001	6.27961E-004	10	..........a	-327.68
	24	25	-2.17988E-001	-1.11985E-002	-1.26869E-001	-2.40000E-001	6.20111E-004	10	..........a	-327.68
	25	26	-2.27488E-001	-1.22578E-002	-1.39055E-001	-2.50000E-001	9.50044E-004	10	..........a	-327.68
	26	27	-2.36588E-001	-1.32189E-002	-1.49574E-001	-2.60000E-001	9.41478E-004	10	..........a	-327.68
	27	28	-2.46788E-001	-1.43190E-002	-1.61751E-001	-2.70000E-001	9.45661E-004	10	..........a	-327.68
	28	29	-2.56388E-001	-1.53097E-002	-1.72539E-001	-2.80000E-001	9.43644E-004	10	..........a	-327.68
	29	30	-2.65788E-001	-1.64079E-002	-1.85333E-001	-2.90000E-001	9.39911E-004	10	..........a	-327.68
	30	31	-2.76388E-001	-1.73955E-002	-1.95394E-001	-3.00000E-001	9.37761E-004	10	..........a	-327.68
	31	32	-2.86988E-001	-1.84953E-002	-2.07713E-001	-3.10000E-001	9.36861E-004	10	..........a	-327.68
	32	33	-2.96988E-001	-1.94212E-002	-2.17793E-001	-3.20000E-001	9.37911E-004	10	..........a	-327.68
	33	34	-3.07388E-001	-2.04363E-002	-2.29670E-001	-3.30000E-001	9.37261E-004	10	..........a	-327.68
	34	35	-3.18588E-001	-2.12993E-002	-2.38420E-001	-3.40000E-001	9.31261E-004	10	..........a	-327.68
	35	36	-3.29988E-001	-2.22247E-002	-2.48949E-001	-3.50000E-001	9.36428E-004	10	..........a	-327.68
	36	37	-3.41588E-001	-2.29525E-002	-2.55996E-001	-3.60000E-001	9.28178E-004	10	..........a	-327.68
	37	38	-3.52988E-001	-2.37163E-002	-2.65162E-001	-3.70000E-001	9.31194E-004	10	..........a	-327.68
	38	39	-3.63488E-001	-2.42799E-002	-2.71518E-001	-3.80000E-001	9.39911E-004	10	..........a	-327.68
	39	40	-3.76188E-001	-2.49172E-002	-2.78143E-001	-3.90000E-001	9.27394E-004	10	..........a	-327.68
	40	41	-3.87388E-001	-2.53811E-002	-2.83265E-001	-4.00000E-001	9.10894E-004	10	..........a	-327.68
	41	42	-3.98588E-001	-2.58473E-002	-2.88770E-001	-4.10000E-001	9.18678E-004	10	..........a	-327.68
	42	43	-4.10188E-001	-2.61982E-002	-2.92013E-001	-4.20000E-001	5.52994E-004	10	..........a	-327.68
	43	44	-4.21988E-001	-2.65878E-002	-2.95799E-001	-4.30000E-001	5.60194E-004	10	..........a	-327.68
	44	45	-4.32188E-001	-2.68264E-002	-2.98822E-001	-4.40000E-001	5.25128E-004	10	..........a	-327.68
	45	46	-4.43770E-001	-2.70772E-002	-3.01283E-001	-4.50000E-001	5.42494E-004	11	..........a	-327.68
	46	47	-4.53170E-001	-2.72954E-002	-3.04883E-001	-4.60000E-001	5.79778E-004	11	..........a	-327.68
	47	48	-4.63570E-001	-2.75348E-002	-3.06973E-001	-4.70000E-001	5.16911E-004	11	..........a	-327.68
	48	49	-4.74670E-001	-2.78188E-002	-3.09585E-001	-4.80000E-001	5.22161E-004	11	..........a	-327.68
	49	50	-4.84270E-001	-2.80286E-002	-3.11979E-001	-4.90000E-001	5.31644E-004	11	..........a	-327.68
	50	51	-4.94170E-001	-2.82737E-002	-3.14598E-001	-5.00000E-001	5.13561E-004	11	..........a	-327.68
	51	52	-5.04171E-001	-2.85190E-002	-3.17072E-001	-5.10000E-001	4.83161E-004	11	..........a	-327.68
	52	53	-5.13370E-001	-2.88134E-002	-3.20375E-001	-5.20000E-001	5.49811E-004	11	..........a	-327.68
	53	54	-5.22570E-001	-2.90921E-002	-3.23579E-001	-5.30000E-001	5.93278E-004	11	..........a	-327.68
	54	55	-5.31570E-001	-2.94937E-002	-3.28153E-001	-5.40000E-001	5.43978E-004	11	..........a	-327.68
	55	56	-5.40470E-001	-2.98722E-002	-3.32158E-001	-5.50000E-001	6.29311E-004	11	..........a	-327.68
	56	57	-5.49370E-001	-3.04069E-002	-3.38036E-001	-5.60000E-001	5.72511E-004	11	..........a	-327.68
	57	58	-5.57970E-001	-3.09213E-002	-3.43447E-001	-5.70000E-001	5.39244E-004	11	..........a	-327.68
	58	59	-5.66970E-001	-3.15515E-002	-3.50186E-001	-5.80000E-001	5.43944E-004	11	..........a	-327.68
	59	60	-5.74970E-001	-3.22035E-002	-3.57602E-001	-5.90000E-001	5.47744E-004	11	..........a	-327.68
	60	61	-5.84170E-001	-3.28970E-002	-3.65210E-001	-6.00000E-001	5.72961E-004	11	..........a	-327.68
	61	62	-5.93571E-001	-3.36502E-002	-3.73048E-001	-6.10000E-001	5.23778E-004	11	..........a	-327.68
	62	63	-6.02970E-001	-3.43854E-002	-3.81407E-001	-6.20000E-001	5.87794E-004	11	..........a	-327.68
	63	64	-6.12770E-001	-3.51289E-002	-3.89315E-001	-6.30000E-001	6.14061E-004	11	..........a	-327.68
	64	65	-6.22570E-001	-3.58861E-002	-3.97979E-001	-6.40000E-001	5.31761E-004	11	..........a	-327.68
	65	66	-6.33170E-001	-3.65774E-002	-4.05126E-001	-6.50000E-001	5.75761E-004	11	..........a	-327.68
	66	67	-6.43770E-001	-3.73374E-002	-4.13284E-001	-6.60000E-001	5.88328E-004	11	..........a	-327.68
	67	68	-6.53770E-001	-3.79533E-002	-4.20576E-001	-6.70000E-001	5.74661E-004	11	..........a	-327.68
	68	69	-6.64370E-001	-3.86547E-002	-4.27900E-001	-6.80000E-001	5.56278E-004	11	..........a	-327.68
	69	70	-6.75370E-001	-3.92570E-002	-4.34158E-001	-6.90000E-001	5.70311E-004	11	..........a	-327.68
	70	71	-6.85571E-001	-3.99172E-002	-4.41396E-001	-7.00000E-001	6.01328E-004	11	..........a	-327.68
	71	72	-6.95770E-001	-4.04664E-002	-4.47467E-001	-7.10000E-001	5.80561E-004	11	..........a	-327.68
	72	73	-7.06371E-001	-4.10959E-002	-4.54127E-001	-7.20000E-001	5.63961E-004	11	..........a	-327.68
	73	74	-7.16170E-001	-4.16548E-002	-4.60311E-001	-7.30000E-001	5.23411E-004	11	..........a	-327.68
	74	75	-7.27071E-001	-4.22413E-002	-4.66090E-001	-7.40000E-001	5.80211E-004	11	..........a	-327.68
	75	76	-7.36370E-001	-4.28320E-002	-4.72797E-001	-7.50000E-001	5.29078E-004	11	..........a	-327.68
	76	77	-7.46170E-001	-4.33685E-002	-4.78752E-001	-7.60000E-001	5.23061E-004	11	..........a	-327.68
	77	78	-7.55770E-001	-4.40415E-002	-4.85858E-001	-7.70000E-001	5.08578E-004	11	..........a	-327.68
	78	79	-7.65370E-001	-4.46248E-002	-4.92192E-001	-7.80000E-001	5.46794E-004	11	..........a	-327.68
	79	80	-7.75370E-001	-4.53221E-002	-4.99233E-001	-7.90000E-001	5.39928E-004	11	..........a	-327.68
	80	81	-7.84370E-001	-4.59915E-002	-5.06598E-001	-8.00000E-001	5.50911E-004	11	..........a	-327.68
	81	82	-7.93770E-001	-4.66915E-002	-5.14309E-001	-8.10000E-001	5.40944E-004	11	..........a	-327.68
	82	83	-8.02370E-001	-4.74754E-002	-5.22942E-001	-8.20000E-001	5.44778E-004	11	..........a	-327.68
	83	84	-8.10970E-001	-4.82665E-002	-5.32075E-001	-8.30000E-001	5.55628E-004	11	..........a	-327.68
	84	85	-8.20170E-001	-4.92076E-002	-5.41556E-001	-8.40000E-001	5.21894E-004	11	..........a	-327.68
	85	86	-8.28370E-001	-5.01396E-002	-5.52299E-001	-8.50000E-001	5.43394E-004	11	..........a	-327.68
	86	87	-8.37170E-001	-5.11636E-002	-5.63004E-001	-8.60000E-001	5.50361E-004	11	..........a	-327.68
	87	88	-8.45770E-001	-5.22778E-002	-5.75174E-001	-8.70000E-001	5.40128E-004	11	..........a	-327.68
	88	89	-8.53971E-001	-5.34015E-002	-5.87678E-001	-8.80000E-001	4.93344E-004	11	..........a	-327.68
	89	90	-8.62570E-001	-5.46848E-002	-6.01221E-001	-8.90000E-001	5.46711E-004	11	..........a	-327.68
	90	91	-8.71071E-001	-5.59282E-002	-6.15529E-001	-9.00000E-001	7.55111E-005	11	..........a	-327.68
	91	92	-8.79370E-001	-5.73468E-002	-6.30718E-001	-9.10000E-001	1.21844E-004	11	..........a	-327.68
	92	93	-8.88170E-001	-5.87610E-002	-6.46069E-001	-9.20000E-001	8.93611E-005	11	..........a	-327.68
	93	94	-8.96970E-001	-6.03266E-002	-6.62346E-001	-9.30000E-001	3.63128E-004	11	..........a	-327.68
	94	95	-9.05370E-001	-6.18494E-002	-6.79194E-001	-9.40000E-001	3.45694E-004	11	..........a	-327.68
	95	96	-9.14170E-001	-6.34687E-002	-6.96588E-001	-9.50000E-001	3.66811E-004	11	..........a	-327.68
	96	97	-9.22570E-001	-6.51666E-002	-7.15237E-001	-9.60000E-001	3.55128E-004	11	..........a	-327.68
	97	98	-9.31370E-001	-6.68330E-002	-7.33608E-001	-9.70000E-001	3.47728E-004	11	..........a	-327.68
	98	99	-9.41170E-001	-6.86880E-002	-7.52542E-001	-9.80000E-001	3.55661E-004	11	..........a	-327.68
	99	100	-9.49670E-001	-7.04132E-002	-7.72219E-001	-9.90000E-001	3.47011E-004	11	..........a	-327.68
	100	101	-9.59570E-001	-7.22733E-002	-7.91349E-001	-1.00000E+000	3.60578E-004	11	..........a	-327.68
	101	102	-9.68370E-001	-7.41256E-002	-8.12186E-001	-1.01000E+000	3.64911E-004	11	..........a	-327.68
	102	103	-9.78470E-001	-7.59023E-002	-8.31004E-001	-1.02000E+000	4.01228E-004	11	..........a	-327.68
	103	104	-9.89370E-001	-7.78594E-002	-8.51155E-001	-1.03000E+000	3.79778E-004	11	..........a	-327.68
	104	105	-9.99370E-001	-7.95356E-002	-8.69893E-001	-1.04000E+000	3.35928E-004	11	..........a	-327.68
	105	106	-1.01057E+000	-8.13921E-002	-8.88744E-001	-1.05000E+000	5.40694E-004	11	..........a	-327.68
	106	107	-1.02197E+000	-8.29979E-002	-9.06083E-001	-1.06000E+000	5.37944E-004	11	..........a	-327.68
	107	108	-1.03337E+000	-8.46326E-002	-9.23334E-001	-1.07000E+000	4.77744E-004	11	..........a	-327.68
	108	109	-1.04557E+000	-8.60501E-002	-9.38449E-001	-1.08000E+000	5.35578E-004	11	..........a	-327.68
	109	110	-1.05857E+000	-8.73925E-002	-9.52682E-001	-1.09000E+000	4.87228E-004	11	..........a	-327.68
	110	111	-1.07257E+000	-8.85697E-002	-9.63910E-001	-1.10000E+000	5.22778E-004	11	..........a	-327.68
	111	112	-1.08667E+000	-8.94901E-002	-9.73967E-001	-1.11000E+000	5.34394E-004	11	..........a	-327.68
	112	113	-1.10077E+000	-9.02357E-002	-9.81116E-001	-1.12000E+000	5.21444E-004	11	..........a	-327.68
	113	114	-1.11577E+000	-9.07116E-002	-9.86055E-001	-1.13000E+000	5.41694E-004	11	..........a	-327.68
	114	115	-1.13057E+000	-9.09612E-002	-9.88284E-001	-1.14000E+000	5.14578E-004	11	..........a	-327.68
	115	116	-1.14597E+000	-9.09863E-002	-9.87862E-001	-1.15000E+000	5.16094E-004	11	..........a	-327.68
	116	117	-1.16117E+000	-9.07259E-002	-9.84908E-001	-1.16000E+000	5.42278E-004	11	..........a	-327.68
	117	118	-1.17647E+000	-9.03053E-002	-9.79128E-001	-1.17000E+000	5.83978E-004	11	..........a	-327.68
	118	119	-1.19057E+000	-8.95897E-002	-9.72288E-001	-1.18000E+000	5.91661E-004	11	..........a	-327.68
	119	120	-1.20457E+000	-8.87778E-002	-9.62517E-001	-1.19000E+000	6.17061E-004	11	..........a	-327.68
	120	121	-1.21857E+000	-8.78300E-002	-9.51524E-001	-1.20000E+000	5.93661E-004	11	..........a	-327.68
	121	122	-1.23047E+000	-8.67459E-002	-9.39883E-001	-1.21000E+000	5.80561E-004	11	..........a	-327.68
	122	123	-1.24137E+000	-8.56356E-002	-9.27950E-001	-1.22000E+000	6.07878E-004	11	..........a	-327.68
	123	124	-1.25217E+000	-8.44611E-002	-9.15636E-001	-1.23000E+000	5.68828E-004	11	..........a	-327.68
	124	125	-1.26237E+000	-8.33937E-002	-9.03455E-001	-1.24000E+000	5.88828E-004	11	..........a	-327.68
	125	126	-1.27177E+000	-8.22727E-002	-8.91839E-001	-1.25000E+000	5.74778E-004	11	..........a	-327.68
	126	127	-1.28097E+000	-8.12801E-002	-8.80353E-001	-1.26000E+000	6.02261E-004	11	..........a	-327.68
	127	128	-1.28957E+000	-8.03071E-002	-8.70021E-001	-1.27000E+000	5.94628E-004	11	..........a	-327.68
	128	129	-1.29737E+000	-7.93871E-002	-8.60739E-001	-1.28000E+000	5.18978E-004	11	..........a	-327.68
	129	130	-1.30507E+000	-7.86400E-002	-8.52738E-001	-1.29000E+000	5.69344E-004	11	..........a	-327.68
	130	131	-1.31347E+000	-7.79002E-002	-8.45057E-001	-1.30000E+000	5.74844E-004	11	..........a	-327.68
	131	132	-1.32157E+000	-7.73951E-002	-8.39142E-001	-1.31000E+000	5.48544E-004	11	..........a	-327.68
	132	133	-1.32877E+000	-7.68464E-002	-8.34086E-001	-1.32000E+000	5.40994E-004	11	..........a	-327.68
	133	134	-1.33657E+000	-7.65433E-002	-8.30545E-001	-1.33000E+000	5.47411E-004	11	..........a	-327.68
	134	135	-1.34357E+000	-7.62734E-002	-8.28273E-001	-1.34000E+000	5.42928E-004	11	..........a	-327.68
	135	136	-1.35137E+000	-7.61199E-002	-8.26921E-001	-1.35000E+000	5.51511E-004	11	..........a	-327.68
	136	137	-1.35917E+000	-7.61532E-002	-8.26981E-001	-1.36000E+000	5.22744E-004	11	..........a	-327.68
	137	138	-1.36647E+000	-7.61795E-002	-8.28329E-001	-1.37000E+000	5.24244E-004	11	..........a	-327.68
	138	139	-1.37377E+000	-7.64342E-002	-8.30928E-001	-1.38000E+000	5.57961E-004	11	..........a	-327.68
	139	140	-1.38147E+000	-7.67230E-002	-8.34553E-001	-1.39000E+000	5.64128E-004	11	..........a	-327.68
	140	141	-1.38897E+000	-7.71700E-002	-8.39695E-001	-1.40000E+000	5.11711E-004	11	..........a	-327.68
	141	142	-1.39617E+000	-7.76897E-002	-8.46121E-001	-1.41000E+000	5.54544E-004	11	..........a	-327.68
	142	143	-1.40477E+000	-7.82853E-002	-8.52638E-001	-1.42000E+000	5.41728E-004	11	..........a	-327.68
	143	144	-1.41257E+000	-7.90793E-002	-8.61121E-001	-1.43000E+000	5.28878E-004	11	..........a	-327.68
	144	145	-1.41967E+000	-7.98589E-002	-8.70820E-001	-1.44000E+000	5.48444E-004	11	..........a	-327.68
	145	146	-1.42717E+000	-8.08401E-002	-8.81428E-001	-1.45000E+000	5.55011E-004	11	..........a	-327.68
	146	147	-1.43497E+000	-8.19010E-002	-8.93468E-001	-1.46000E+000	5.41928E-004	11	..........a	-327.68
	147	148	-1.44337E+000	-8.30322E-002	-9.05782E-001	-1.47000E+000	5.46528E-004	11	..........a	-327.68
	148	149	-1.45117E+000	-8.43132E-002	-9.19891E-001	-1.48000E+000	5.08678E-004	11	..........a	-327.68
	149	150	-1.45957E+000	-8.55363E-002	-9.33794E-001	-1.49000E+000	5.14944E-004	11	..........a	-327.68
	150	151	-1.46747E+000	-8.70146E-002	-9.49919E-001	-1.50000E+000	5.23094E-004	11	..........a	-327.68
