EXPLAIN
TAG	POTENTIODYNAMIC
TITLE	LABEL	Potentiodynamic Scan	Test Identifier
DATE	LABEL	8.2.2023	Date
TIME	LABEL	13:14:34	Time
NOTES	NOTES	1	Notes...
	
PSTAT	PSTAT	REF3000-19129	Potentiostat
VINIT	POTEN	0.00000E+000	F	Initial E (V)
VFINAL	POTEN	-1.50000E+000	F	Final E (V)
SCANRATE	QUANT	1.00000E+001	Scan Rate (mV/s)
SAMPLETIME	QUANT	1.00000E+000	Sample Period (s)
AREA	QUANT	1.00000E+000	Sample Area (cm^2)
DENSITY	QUANT	7.87000E+000	Density (g/cm^3)
EQUIV	QUANT	2.79200E+001	Equiv. Wt
IRCOMP	TOGGLE	T	IR Comp
EOC	QUANT	0	Open Circuit (V)
SEQUENCER	TOGGLE	TRUE	Run as Sequence
PSTATMODEL	IQUANT	5	Pstat Model
PSTATSECTION	LABEL	REF3000-19129	Pstat Section
PSTATSERIALNO	LABEL	19129	Pstat Serial Number
CTRLMODE	IQUANT	1	Control Mode
ELECTROMETER	IQUANT	0	RE=0 or CS=1
IESTAB	IQUANT	2	I/E Stability
CASPEED	IQUANT	4	Control Amp Speed
CONVENTION	IQUANT	1	Current Convention
ICHRANGE	IQUANT	2	Ich Range
ICHRANGEMODE	TOGGLE	T	Ich Auto Range
ICHOFFSETENABLE	TOGGLE	F	Ich Offset Enable
ICHOFFSET	QUANT	0	Ich Offset (V)
ICHFILTER	IQUANT	3	Ich Filter
VCHRANGE	IQUANT	3	Vch Range
VCHRANGEMODE	TOGGLE	T	Vch Auto Range
VCHOFFSETENABLE	TOGGLE	F	Vch Offset Enable
VCHOFFSET	QUANT	0	Vch Offset (V)
VCHFILTER	IQUANT	1	Vch Filter
ACHRANGE	IQUANT	2	Ach Range
ACHOFFSETENABLE	TOGGLE	F	Ach Offset Enable
ACHOFFSET	QUANT	0	Ach Offset (V)
ACHFILTER	IQUANT	1	Ach Filter
IERANGELOWERLIMIT	IQUANT	4	I/E Range Lower Limit
IERANGEMODE	TOGGLE	T	I/E AutoRange
IERANGE	IQUANT	11	I/E Range
POSFEEDENABLE	TOGGLE	F	Positive Feedback IR Comp
POSFEEDRESISTANCE	QUANT	0	Positive Feedback Resistance (ohm)
ACHSELECT	IQUANT	0	Ach Select
SENSECABLEID	IQUANT	14	Sense Cable ID
PWRCABLEID	IQUANT	13	Power Cable ID
DCCALDATE	LABEL	11/22/2022	DC Calibration Date
ACCALDATE	LABEL		AC Calibration Date
THERMOSELECT	IQUANT	1	Thermo Select
FRAMEWORKVERSION	QUANT	7.07	Framework Version
INSTRUMENTVERSION	LABEL	4.35	Instrument Version
COMPLIANCEVOLTAGE	IQUANT	0	Compliance Voltage
CURVE	TABLE	151
	Pt	T	Vf	Im	Vu	Sig	Ach	IERange	Over	Temp
	#	s	V vs. Ref.	A	V	V	V	#	bits	deg C
	0	1	6.29707E-004	-5.96788E-004	-1.63740E-002	-5.96046E-008	3.19528E-004	9	..........a	-327.68
	1	2	-1.09845E-002	-5.78930E-004	-1.50677E-002	-1.00001E-002	3.19578E-004	9	..........a	-327.68
	2	3	-2.08106E-002	-5.78728E-004	-1.50523E-002	-2.00001E-002	3.19394E-004	9	..........a	-327.68
	3	4	-2.96406E-002	-5.86201E-004	-1.49677E-002	-3.00001E-002	4.76961E-004	9	..........a	-327.68
	4	5	-3.91306E-002	-6.10519E-004	-1.54479E-002	-4.00001E-002	4.80661E-004	9	..........a	-327.68
	5	6	-4.84206E-002	-6.40691E-004	-1.61505E-002	-5.00001E-002	4.79861E-004	9	..........a	-327.68
	6	7	-5.81206E-002	-6.79320E-004	-1.69252E-002	-6.00001E-002	5.04928E-004	9	..........a	-327.68
	7	8	-6.79106E-002	-7.24215E-004	-1.78821E-002	-7.00001E-002	4.75228E-004	9	..........a	-327.68
	8	9	-7.79806E-002	-7.76752E-004	-1.85282E-002	-8.00001E-002	4.75894E-004	9	..........a	-327.68
	9	10	-8.77406E-002	-8.34036E-004	-1.97498E-002	-9.00001E-002	5.02411E-004	9	..........a	-327.68
	10	11	-9.70606E-002	-8.92239E-004	-2.09087E-002	-1.00000E-001	4.71428E-004	9	..........a	-327.68
	11	12	-1.06991E-001	-9.62238E-004	-2.22080E-002	-1.10000E-001	5.04611E-004	9	..........a	-327.68
	12	13	-1.17091E-001	-1.03714E-003	-2.33882E-002	-1.20000E-001	6.75794E-004	9	..........a	-327.68
	13	14	-1.26891E-001	-1.11897E-003	-2.48186E-002	-1.30000E-001	6.04778E-004	9	..........a	-327.68
	14	15	-1.36661E-001	-1.20812E-003	-2.63358E-002	-1.40000E-001	4.29894E-004	9	..........a	-327.68
	15	16	-1.46541E-001	-1.30513E-003	-2.76930E-002	-1.50000E-001	4.79894E-004	9	..........a	-327.68
	16	17	-1.56271E-001	-1.41406E-003	-2.94240E-002	-1.60000E-001	4.18994E-004	9	..........a	-327.68
	17	18	-1.66061E-001	-1.53394E-003	-3.11045E-002	-1.70000E-001	4.41794E-004	9	..........a	-327.68
	18	19	-1.77941E-001	-1.70718E-003	-3.09313E-002	-1.80000E-001	4.21611E-004	9	..........a	-327.68
	19	20	-1.88161E-001	-1.84958E-003	-3.21692E-002	-1.90000E-001	2.59261E-004	9	..........a	-327.68
	20	21	-1.96611E-001	-1.99183E-003	-3.36969E-002	-2.00000E-001	3.94028E-004	9	..........a	-327.68
	21	22	-2.06001E-001	-2.16435E-003	-3.55330E-002	-2.10000E-001	4.44744E-004	9	..........a	-327.68
	22	23	-2.15341E-001	-2.35376E-003	-3.76459E-002	-2.20000E-001	4.87061E-004	9	..........a	-327.68
	23	24	-2.24551E-001	-2.56063E-003	-4.01617E-002	-2.30000E-001	4.63678E-004	9	..........a	-327.68
	24	25	-2.34261E-001	-2.78912E-003	-4.26877E-002	-2.40000E-001	5.90944E-005	9	..........a	-327.68
	25	26	-2.44188E-001	-3.03931E-003	-4.55426E-002	-2.50000E-001	8.93777E-005	10	..........a	-327.68
	26	27	-2.53388E-001	-3.29580E-003	-4.88117E-002	-2.60000E-001	9.72777E-005	10	..........a	-327.68
	27	28	-2.63288E-001	-3.56900E-003	-5.16235E-002	-2.70000E-001	1.17628E-004	10	..........a	-327.68
	28	29	-2.72788E-001	-3.86369E-003	-5.53930E-002	-2.80000E-001	1.00728E-004	10	..........a	-327.68
	29	30	-2.81388E-001	-4.12226E-003	-5.95189E-002	-2.90000E-001	9.96277E-005	10	..........a	-327.68
	30	31	-2.90888E-001	-4.45831E-003	-6.39713E-002	-3.00000E-001	1.18294E-004	10	..........a	-327.68
	31	32	-2.99788E-001	-4.83004E-003	-6.91261E-002	-3.10000E-001	1.16694E-004	10	..........a	-327.68
	32	33	-3.14588E-001	-5.41425E-003	-6.87488E-002	-3.20000E-001	1.09428E-004	10	..........a	-327.68
	33	34	-3.25088E-001	-5.83039E-003	-7.34973E-002	-3.30000E-001	1.40128E-004	10	..........a	-327.68
	34	35	-3.31288E-001	-6.11754E-003	-7.67072E-002	-3.40000E-001	1.34194E-004	10	..........a	-327.68
	35	36	-3.40788E-001	-6.54712E-003	-8.20092E-002	-3.50000E-001	1.47861E-004	10	..........a	-327.68
	36	37	-3.49188E-001	-6.93728E-003	-8.68172E-002	-3.60000E-001	1.25644E-004	10	..........a	-327.68
	37	38	-3.59288E-001	-7.38912E-003	-9.19456E-002	-3.70000E-001	1.32144E-004	10	..........a	-327.68
	38	39	-3.70088E-001	-8.04456E-003	-9.58282E-002	-3.80000E-001	1.64911E-004	10	..........a	-327.68
	39	40	-3.79788E-001	-8.51192E-003	-1.01391E-001	-3.90000E-001	1.32911E-004	10	..........a	-327.68
	40	41	-3.88188E-001	-8.96625E-003	-1.06735E-001	-4.00000E-001	1.82444E-004	10	..........a	-327.68
	41	42	-3.97588E-001	-9.50020E-003	-1.13048E-001	-4.10000E-001	1.59078E-004	10	..........a	-327.68
	42	43	-4.06688E-001	-1.00143E-002	-1.19155E-001	-4.20000E-001	1.67628E-004	10	..........a	-327.68
	43	44	-4.15988E-001	-1.05688E-002	-1.26042E-001	-4.30000E-001	1.77661E-004	10	..........a	-327.68
	44	45	-4.25988E-001	-1.11152E-002	-1.32203E-001	-4.40000E-001	1.67078E-004	10	..........a	-327.68
	45	46	-4.35688E-001	-1.16866E-002	-1.39188E-001	-4.50000E-001	2.75694E-004	10	..........a	-327.68
	46	47	-4.45288E-001	-1.22300E-002	-1.45886E-001	-4.60000E-001	2.71728E-004	10	..........a	-327.68
	47	48	-4.54888E-001	-1.28067E-002	-1.53365E-001	-4.70000E-001	3.14778E-004	10	..........a	-327.68
	48	49	-4.66488E-001	-1.37582E-002	-1.58433E-001	-4.80000E-001	2.72194E-004	10	..........a	-327.68
	49	50	-4.76588E-001	-1.43886E-002	-1.65555E-001	-4.90000E-001	3.10244E-004	10	..........a	-327.68
	50	51	-4.85289E-001	-1.49626E-002	-1.72040E-001	-5.00000E-001	3.13628E-004	10	..........a	-327.68
	51	52	-4.94488E-001	-1.56075E-002	-1.79860E-001	-5.10000E-001	3.09161E-004	10	..........a	-327.68
	52	53	-5.03588E-001	-1.62387E-002	-1.87211E-001	-5.20000E-001	3.09844E-004	10	..........a	-327.68
	53	54	-5.13788E-001	-1.69112E-002	-1.94797E-001	-5.30000E-001	3.18411E-004	10	..........a	-327.68
	54	55	-5.21788E-001	-1.75926E-002	-2.04281E-001	-5.40000E-001	2.59844E-004	10	..........a	-327.68
	55	56	-5.31189E-001	-1.82607E-002	-2.12297E-001	-5.50000E-001	2.76694E-004	10	..........a	-327.68
	56	57	-5.41088E-001	-1.90372E-002	-2.21831E-001	-5.60000E-001	2.98428E-004	10	..........a	-327.68
	57	58	-5.50388E-001	-1.97336E-002	-2.30588E-001	-5.70000E-001	3.02128E-004	10	..........a	-327.68
	58	59	-5.59588E-001	-2.05181E-002	-2.40828E-001	-5.80000E-001	3.01928E-004	10	..........a	-327.68
	59	60	-5.71389E-001	-2.19735E-002	-2.47624E-001	-5.90000E-001	2.69111E-004	10	..........a	-327.68
	60	61	-5.81188E-001	-2.28634E-002	-2.58119E-001	-6.00000E-001	2.77794E-004	10	..........a	-327.68
	61	62	-5.89688E-001	-2.36052E-002	-2.66195E-001	-6.10000E-001	2.68594E-004	10	..........a	-327.68
	62	63	-5.98689E-001	-2.45455E-002	-2.77738E-001	-6.20000E-001	2.99928E-004	10	..........a	-327.68
	63	64	-6.07488E-001	-2.53968E-002	-2.87259E-001	-6.30000E-001	2.60361E-004	10	..........a	-327.68
	64	65	-6.16588E-001	-2.64201E-002	-2.99581E-001	-6.40000E-001	2.84661E-004	10	..........a	-327.68
	65	66	-6.25388E-001	-2.73474E-002	-3.10226E-001	-6.50000E-001	2.74361E-004	10	..........a	-327.68
	66	67	-6.35070E-001	-2.84043E-002	-3.23027E-001	-6.60000E-001	3.15894E-004	11	..........a	-327.68
	67	68	-6.43670E-001	-2.93906E-002	-3.35136E-001	-6.70000E-001	3.02594E-004	11	..........a	-327.68
	68	69	-6.52870E-001	-3.04843E-002	-3.48647E-001	-6.80000E-001	2.96244E-004	11	..........a	-327.68
	69	70	-6.62770E-001	-3.15737E-002	-3.60989E-001	-6.90000E-001	3.41861E-004	11	..........a	-327.68
	70	71	-6.72370E-001	-3.27423E-002	-3.74876E-001	-7.00000E-001	2.52878E-004	11	..........a	-327.68
	71	72	-6.81370E-001	-3.38250E-002	-3.88162E-001	-7.10000E-001	3.48028E-004	11	..........a	-327.68
	72	73	-6.90871E-001	-3.50434E-002	-4.02551E-001	-7.20000E-001	3.56511E-004	11	..........a	-327.68
	73	74	-7.00471E-001	-3.66589E-002	-4.16215E-001	-7.30000E-001	3.32561E-004	11	..........a	-327.68
	74	75	-7.12671E-001	-3.86987E-002	-4.28272E-001	-7.40000E-001	3.42594E-004	11	..........a	-327.68
	75	76	-7.21870E-001	-3.99913E-002	-4.42166E-001	-7.50000E-001	1.36909E-003	11	..........a	-327.68
	76	77	-7.30170E-001	-4.12147E-002	-4.55895E-001	-7.60000E-001	1.35951E-003	11	..........a	-327.68
	77	78	-7.38770E-001	-4.25334E-002	-4.71300E-001	-7.70000E-001	1.35501E-003	11	..........a	-327.68
	78	79	-7.47571E-001	-4.38947E-002	-4.86183E-001	-7.80000E-001	1.32469E-003	11	..........a	-327.68
	79	80	-7.56170E-001	-4.53305E-002	-5.02712E-001	-7.90000E-001	1.33698E-003	11	..........a	-327.68
	80	81	-7.64770E-001	-4.67611E-002	-5.19193E-001	-8.00000E-001	1.33769E-003	11	..........a	-327.68
	81	82	-7.74070E-001	-4.83063E-002	-5.36252E-001	-8.10000E-001	1.33348E-003	11	..........a	-327.68
	82	83	-7.82970E-001	-4.98518E-002	-5.53821E-001	-8.20000E-001	1.32678E-003	11	..........a	-327.68
	83	84	-7.91371E-001	-5.14595E-002	-5.72414E-001	-8.30000E-001	1.34536E-003	11	..........a	-327.68
	84	85	-8.00070E-001	-5.30773E-002	-5.91157E-001	-8.40000E-001	1.33116E-003	11	..........a	-327.68
	85	86	-8.09170E-001	-5.48306E-002	-6.10802E-001	-8.50000E-001	1.32953E-003	11	..........a	-327.68
	86	87	-8.18471E-001	-5.65250E-002	-6.30261E-001	-8.60000E-001	1.32191E-003	11	..........a	-327.68
	87	88	-8.27370E-001	-5.83543E-002	-6.50737E-001	-8.70000E-001	1.32759E-003	11	..........a	-327.68
	88	89	-8.36770E-001	-6.01166E-002	-6.70806E-001	-8.80000E-001	1.31404E-003	11	..........a	-327.68
	89	90	-8.46771E-001	-6.19559E-002	-6.91853E-001	-8.90000E-001	2.05728E-004	11	..........a	-327.68
	90	91	-8.56270E-001	-6.37558E-002	-7.12271E-001	-9.00000E-001	3.05794E-004	11	..........a	-327.68
	91	92	-8.65570E-001	-6.56522E-002	-7.33868E-001	-9.10000E-001	2.34528E-004	11	..........a	-327.68
	92	93	-8.75071E-001	-6.75007E-002	-7.54840E-001	-9.20000E-001	2.91728E-004	11	..........a	-327.68
	93	94	-8.84970E-001	-6.94015E-002	-7.76406E-001	-9.30000E-001	3.04044E-004	11	..........a	-327.68
	94	95	-8.95671E-001	-7.12932E-002	-7.96610E-001	-9.40000E-001	3.07278E-004	11	..........a	-327.68
	95	96	-9.05571E-001	-7.31534E-002	-8.18502E-001	-9.50000E-001	3.03844E-004	11	..........a	-327.68
	96	97	-9.16470E-001	-7.49506E-002	-8.37571E-001	-9.60000E-001	1.75344E-004	11	..........a	-327.68
	97	98	-9.27070E-001	-7.67848E-002	-8.58918E-001	-9.70000E-001	2.96111E-004	11	..........a	-327.68
	98	99	-9.38870E-001	-7.84628E-002	-8.75952E-001	-9.80000E-001	2.42994E-004	11	..........a	-327.68
	99	100	-9.50870E-001	-8.01661E-002	-8.95405E-001	-9.90000E-001	3.03511E-004	11	..........a	-327.68
	100	101	-9.62970E-001	-8.16013E-002	-9.10245E-001	-1.00000E+000	2.77644E-004	11	..........a	-327.68
	101	102	-9.76070E-001	-8.31103E-002	-9.26635E-001	-1.01000E+000	2.94111E-004	11	..........a	-327.68
	102	103	-9.88370E-001	-8.42545E-002	-9.39114E-001	-1.02000E+000	2.87844E-004	11	..........a	-327.68
	103	104	-1.00277E+000	-8.54467E-002	-9.51194E-001	-1.03000E+000	2.99778E-004	11	..........a	-327.68
	104	105	-1.01667E+000	-8.62087E-002	-9.59482E-001	-1.04000E+000	2.81111E-004	11	..........a	-327.68
	105	106	-1.03187E+000	-8.69437E-002	-9.66500E-001	-1.05000E+000	3.02528E-004	11	..........a	-327.68
	106	107	-1.04677E+000	-8.72065E-002	-9.69852E-001	-1.06000E+000	3.02294E-004	11	..........a	-327.68
	107	108	-1.06267E+000	-8.74342E-002	-9.70856E-001	-1.07000E+000	3.02111E-004	11	..........a	-327.68
	108	109	-1.07887E+000	-8.71572E-002	-9.67995E-001	-1.08000E+000	2.95428E-004	11	..........a	-327.68
	109	110	-1.09497E+000	-8.67811E-002	-9.62823E-001	-1.09000E+000	2.83944E-004	11	..........a	-327.68
	110	111	-1.11147E+000	-8.59862E-002	-9.53549E-001	-1.10000E+000	2.84111E-004	11	..........a	-327.68
	111	112	-1.12757E+000	-8.50355E-002	-9.42206E-001	-1.11000E+000	2.63128E-004	11	..........a	-327.68
	112	113	-1.14357E+000	-8.37063E-002	-9.26979E-001	-1.12000E+000	2.68078E-004	11	..........a	-327.68
	113	114	-1.15877E+000	-8.22140E-002	-9.10558E-001	-1.13000E+000	2.93728E-004	11	..........a	-327.68
	114	115	-1.17287E+000	-8.04653E-002	-8.91159E-001	-1.14000E+000	2.97578E-004	11	..........a	-327.68
	115	116	-1.18607E+000	-7.85708E-002	-8.71390E-001	-1.15000E+000	2.73361E-004	11	..........a	-327.68
	116	117	-1.19857E+000	-7.66537E-002	-8.49731E-001	-1.16000E+000	2.84678E-004	11	..........a	-327.68
	117	118	-1.20997E+000	-7.47001E-002	-8.28669E-001	-1.17000E+000	3.01744E-004	11	..........a	-327.68
	118	119	-1.21987E+000	-7.27848E-002	-8.06951E-001	-1.18000E+000	3.04328E-004	11	..........a	-327.68
	119	120	-1.22877E+000	-7.08960E-002	-7.87088E-001	-1.19000E+000	2.75794E-004	11	..........a	-327.68
	120	121	-1.23707E+000	-6.91101E-002	-7.67083E-001	-1.20000E+000	2.91061E-004	11	..........a	-327.68
	121	122	-1.24507E+000	-6.74583E-002	-7.49129E-001	-1.21000E+000	2.96094E-004	11	..........a	-327.68
	122	123	-1.25247E+000	-6.58889E-002	-7.31747E-001	-1.22000E+000	2.09811E-004	11	..........a	-327.68
	123	124	-1.25367E+000	-6.48011E-002	-7.22849E-001	-1.23000E+000	2.49944E-004	11	..........a	-327.68
	124	125	-1.26857E+000	-6.50278E-002	-7.00370E-001	-1.24000E+000	2.96411E-004	11	..........a	-327.68
	125	126	-1.27837E+000	-6.42074E-002	-6.91671E-001	-1.25000E+000	3.10594E-004	11	..........a	-327.68
	126	127	-1.28317E+000	-6.24592E-002	-6.74365E-001	-1.26000E+000	2.81594E-004	11	..........a	-327.68
	127	128	-1.29137E+000	-6.18845E-002	-6.67702E-001	-1.27000E+000	3.03128E-004	11	..........a	-327.68
	128	129	-1.29507E+000	-6.06279E-002	-6.56374E-001	-1.28000E+000	2.47778E-004	11	..........a	-327.68
	129	130	-1.30207E+000	-6.02931E-002	-6.52885E-001	-1.29000E+000	2.55478E-004	11	..........a	-327.68
	130	131	-1.30727E+000	-5.95573E-002	-6.46154E-001	-1.30000E+000	1.65311E-004	11	..........a	-327.68
	131	132	-1.31447E+000	-5.94878E-002	-6.45795E-001	-1.31000E+000	1.69461E-004	11	..........a	-327.68
	132	133	-1.32077E+000	-5.91571E-002	-6.42747E-001	-1.32000E+000	2.38978E-004	11	..........a	-327.68
	133	134	-1.32857E+000	-5.92937E-002	-6.44418E-001	-1.33000E+000	2.25711E-004	11	..........a	-327.68
	134	135	-1.33477E+000	-5.92845E-002	-6.45220E-001	-1.34000E+000	2.41644E-004	11	..........a	-327.68
	135	136	-1.34257E+000	-5.96032E-002	-6.49108E-001	-1.35000E+000	1.72228E-004	11	..........a	-327.68
	136	137	-1.34977E+000	-5.99185E-002	-6.52653E-001	-1.36000E+000	2.27528E-004	11	..........a	-327.68
	137	138	-1.35747E+000	-6.03889E-002	-6.58685E-001	-1.37000E+000	2.52444E-004	11	..........a	-327.68
	138	139	-1.36427E+000	-6.09580E-002	-6.65587E-001	-1.38000E+000	2.51444E-004	11	..........a	-327.68
	139	140	-1.37227E+000	-6.16112E-002	-6.73611E-001	-1.39000E+000	2.61878E-004	11	..........a	-327.68
	140	141	-1.38007E+000	-6.24053E-002	-6.82565E-001	-1.40000E+000	2.27794E-004	11	..........a	-327.68
	141	142	-1.38777E+000	-6.32635E-002	-6.92795E-001	-1.41000E+000	1.88178E-004	11	..........a	-327.68
	142	143	-1.39537E+000	-6.42361E-002	-7.04166E-001	-1.42000E+000	2.27528E-004	11	..........a	-327.68
	143	144	-1.40407E+000	-6.53108E-002	-7.15656E-001	-1.43000E+000	1.91811E-004	11	..........a	-327.68
	144	145	-1.41257E+000	-6.64383E-002	-7.28663E-001	-1.44000E+000	2.12878E-004	11	..........a	-327.68
	145	146	-1.41997E+000	-6.76243E-002	-7.42584E-001	-1.45000E+000	2.75994E-004	11	..........a	-327.68
	146	147	-1.42817E+000	-6.88578E-002	-7.57358E-001	-1.46000E+000	2.65228E-004	11	..........a	-327.68
	147	148	-1.43687E+000	-7.02477E-002	-7.72378E-001	-1.47000E+000	2.83128E-004	11	..........a	-327.68
	148	149	-1.44547E+000	-7.16417E-002	-7.88473E-001	-1.48000E+000	2.95711E-004	11	..........a	-327.68
	149	150	-1.45357E+000	-7.31722E-002	-8.05586E-001	-1.49000E+000	3.08378E-004	11	..........a	-327.68
	150	151	-1.46137E+000	-7.46917E-002	-8.23831E-001	-1.50000E+000	2.99561E-004	11	..........a	-327.68
