EXPLAIN
TAG	POTENTIODYNAMIC
TITLE	LABEL	Potentiodynamic Scan	Test Identifier
DATE	LABEL	6.2.2023	Date
TIME	LABEL	12:03:32	Time
NOTES	NOTES	1	Notes...
	
PSTAT	PSTAT	REF3000-19129	Potentiostat
VINIT	POTEN	0.00000E+000	F	Initial E (V)
VFINAL	POTEN	-1.50000E+000	F	Final E (V)
SCANRATE	QUANT	1.00000E+001	Scan Rate (mV/s)
SAMPLETIME	QUANT	1.00000E+000	Sample Period (s)
AREA	QUANT	1.00000E+000	Sample Area (cm^2)
DENSITY	QUANT	7.87000E+000	Density (g/cm^3)
EQUIV	QUANT	2.79200E+001	Equiv. Wt
IRCOMP	TOGGLE	T	IR Comp
EOC	QUANT	0	Open Circuit (V)
SEQUENCER	TOGGLE	TRUE	Run as Sequence
PSTATMODEL	IQUANT	5	Pstat Model
PSTATSECTION	LABEL	REF3000-19129	Pstat Section
PSTATSERIALNO	LABEL	19129	Pstat Serial Number
CTRLMODE	IQUANT	1	Control Mode
ELECTROMETER	IQUANT	0	RE=0 or CS=1
IESTAB	IQUANT	2	I/E Stability
CASPEED	IQUANT	4	Control Amp Speed
CONVENTION	IQUANT	1	Current Convention
ICHRANGE	IQUANT	2	Ich Range
ICHRANGEMODE	TOGGLE	T	Ich Auto Range
ICHOFFSETENABLE	TOGGLE	F	Ich Offset Enable
ICHOFFSET	QUANT	0	Ich Offset (V)
ICHFILTER	IQUANT	3	Ich Filter
VCHRANGE	IQUANT	3	Vch Range
VCHRANGEMODE	TOGGLE	T	Vch Auto Range
VCHOFFSETENABLE	TOGGLE	F	Vch Offset Enable
VCHOFFSET	QUANT	0	Vch Offset (V)
VCHFILTER	IQUANT	1	Vch Filter
ACHRANGE	IQUANT	2	Ach Range
ACHOFFSETENABLE	TOGGLE	F	Ach Offset Enable
ACHOFFSET	QUANT	0	Ach Offset (V)
ACHFILTER	IQUANT	1	Ach Filter
IERANGELOWERLIMIT	IQUANT	4	I/E Range Lower Limit
IERANGEMODE	TOGGLE	T	I/E AutoRange
IERANGE	IQUANT	11	I/E Range
POSFEEDENABLE	TOGGLE	F	Positive Feedback IR Comp
POSFEEDRESISTANCE	QUANT	0	Positive Feedback Resistance (ohm)
ACHSELECT	IQUANT	0	Ach Select
SENSECABLEID	IQUANT	14	Sense Cable ID
PWRCABLEID	IQUANT	13	Power Cable ID
DCCALDATE	LABEL	11/22/2022	DC Calibration Date
ACCALDATE	LABEL		AC Calibration Date
THERMOSELECT	IQUANT	1	Thermo Select
FRAMEWORKVERSION	QUANT	7.07	Framework Version
INSTRUMENTVERSION	LABEL	4.35	Instrument Version
COMPLIANCEVOLTAGE	IQUANT	0	Compliance Voltage
CURVE	TABLE	151
	Pt	T	Vf	Im	Vu	Sig	Ach	IERange	Over	Temp
	#	s	V vs. Ref.	A	V	V	V	#	bits	deg C
	0	1	6.29707E-004	-6.22299E-004	-7.83147E-003	-5.96046E-008	2.49094E-004	9	..........a	-327.68
	1	2	-8.18447E-003	-6.64667E-004	-9.18553E-003	-1.00001E-002	2.39928E-004	9	..........a	-327.68
	2	3	-1.76806E-002	-7.10205E-004	-9.81206E-003	-2.00001E-002	2.47994E-004	9	..........a	-327.68
	3	4	-2.80906E-002	-7.83424E-004	-1.08795E-002	-3.00001E-002	2.42811E-004	9	..........a	-327.68
	4	5	-3.80006E-002	-8.50840E-004	-1.14433E-002	-4.00001E-002	2.48828E-004	9	..........a	-327.68
	5	6	-4.77206E-002	-9.41361E-004	-1.29004E-002	-5.00001E-002	2.89144E-004	9	..........a	-327.68
	6	7	-5.71906E-002	-1.03343E-003	-1.39109E-002	-6.00001E-002	2.87278E-004	9	..........a	-327.68
	7	8	-6.70706E-002	-1.15790E-003	-1.54916E-002	-7.00001E-002	2.94478E-004	9	..........a	-327.68
	8	9	-7.64506E-002	-1.28751E-003	-1.70763E-002	-8.00001E-002	2.90194E-004	9	..........a	-327.68
	9	10	-8.58806E-002	-1.44629E-003	-1.91084E-002	-9.00001E-002	2.86244E-004	9	..........a	-327.68
	10	11	-9.49306E-002	-1.62561E-003	-2.15245E-002	-1.00000E-001	2.83594E-004	9	..........a	-327.68
	11	12	-1.04421E-001	-1.83965E-003	-2.39968E-002	-1.10000E-001	2.81078E-004	9	..........a	-327.68
	12	13	-1.13491E-001	-2.09060E-003	-2.73228E-002	-1.20000E-001	2.69378E-004	9	..........a	-327.68
	13	14	-1.22401E-001	-2.36866E-003	-3.08474E-002	-1.30000E-001	2.54344E-004	9	..........a	-327.68
	14	15	-1.31531E-001	-2.69925E-003	-3.49290E-002	-1.40000E-001	2.48944E-004	9	..........a	-327.68
	15	16	-1.40365E-001	-3.07599E-003	-3.99404E-002	-1.50000E-001	2.71911E-004	10	..........a	-327.68
	16	17	-1.49575E-001	-3.50121E-003	-4.49566E-002	-1.60000E-001	2.76778E-004	10	..........a	-327.68
	17	18	-1.58825E-001	-3.97898E-003	-5.06677E-002	-1.70000E-001	2.76728E-004	10	..........a	-327.68
	18	19	-1.67735E-001	-4.48143E-003	-5.67430E-002	-1.80000E-001	2.70561E-004	10	..........a	-327.68
	19	20	-1.76775E-001	-5.02824E-003	-6.34268E-002	-1.90000E-001	2.61494E-004	10	..........a	-327.68
	20	21	-1.85945E-001	-5.59143E-003	-7.02190E-002	-2.00000E-001	2.94428E-004	10	..........a	-327.68
	21	22	-1.94925E-001	-6.18421E-003	-7.79156E-002	-2.10000E-001	3.02578E-004	10	..........a	-327.68
	22	23	-2.03288E-001	-6.78475E-003	-8.61107E-002	-2.20000E-001	2.84961E-004	10	..........a	-327.68
	23	24	-2.13188E-001	-7.42740E-003	-9.39848E-002	-2.30000E-001	2.89344E-004	10	..........a	-327.68
	24	25	-2.23088E-001	-8.08508E-003	-1.02075E-001	-2.40000E-001	2.92011E-004	10	..........a	-327.68
	25	26	-2.33788E-001	-8.75105E-003	-1.09423E-001	-2.50000E-001	2.83594E-004	10	..........a	-327.68
	26	27	-2.43888E-001	-9.42815E-003	-1.17207E-001	-2.60000E-001	2.72194E-004	10	..........a	-327.68
	27	28	-2.52488E-001	-1.00836E-002	-1.26054E-001	-2.70000E-001	2.97378E-004	10	..........a	-327.68
	28	29	-2.62288E-001	-1.07553E-002	-1.34029E-001	-2.80000E-001	2.88444E-004	10	..........a	-327.68
	29	30	-2.72888E-001	-1.14580E-002	-1.42084E-001	-2.90000E-001	2.32078E-004	10	..........a	-327.68
	30	31	-2.81888E-001	-1.21347E-002	-1.51044E-001	-3.00000E-001	2.88678E-004	10	..........a	-327.68
	31	32	-2.91288E-001	-1.28040E-002	-1.59644E-001	-3.10000E-001	2.82644E-004	10	..........a	-327.68
	32	33	-3.02088E-001	-1.35044E-002	-1.67822E-001	-3.20000E-001	2.41494E-004	10	..........a	-327.68
	33	34	-3.12088E-001	-1.41896E-002	-1.76464E-001	-3.30000E-001	2.81911E-004	10	..........a	-327.68
	34	35	-3.20888E-001	-1.48353E-002	-1.85685E-001	-3.40000E-001	2.80011E-004	10	..........a	-327.68
	35	36	-3.31688E-001	-1.54999E-002	-1.93661E-001	-3.50000E-001	2.87194E-004	10	..........a	-327.68
	36	37	-3.42788E-001	-1.61803E-002	-2.01751E-001	-3.60000E-001	2.74211E-004	10	..........a	-327.68
	37	38	-3.52088E-001	-1.67840E-002	-2.10429E-001	-3.70000E-001	2.94194E-004	10	..........a	-327.68
	38	39	-3.62488E-001	-1.73986E-002	-2.17971E-001	-3.80000E-001	2.88444E-004	10	..........a	-327.68
	39	40	-3.73388E-001	-1.80408E-002	-2.25853E-001	-3.90000E-001	2.83994E-004	10	..........a	-327.68
	40	41	-3.84888E-001	-1.86096E-002	-2.31726E-001	-4.00000E-001	2.68444E-004	10	..........a	-327.68
	41	42	-3.95688E-001	-1.91863E-002	-2.38696E-001	-4.10000E-001	2.84044E-004	10	..........a	-327.68
	42	43	-4.05288E-001	-1.96746E-002	-2.45119E-001	-4.20000E-001	2.63761E-004	10	..........a	-327.68
	43	44	-4.16288E-001	-2.02221E-002	-2.51040E-001	-4.30000E-001	2.99461E-004	10	..........a	-327.68
	44	45	-4.26388E-001	-2.07176E-002	-2.57181E-001	-4.40000E-001	2.99594E-004	10	..........a	-327.68
	45	46	-4.36688E-001	-2.11925E-002	-2.62815E-001	-4.50000E-001	2.69461E-004	10	..........a	-327.68
	46	47	-4.47188E-001	-2.16779E-002	-2.68564E-001	-4.60000E-001	2.70344E-004	10	..........a	-327.68
	47	48	-4.57188E-001	-2.21195E-002	-2.73982E-001	-4.70000E-001	3.00444E-004	10	..........a	-327.68
	48	49	-4.67088E-001	-2.25784E-002	-2.79776E-001	-4.80000E-001	2.92744E-004	10	..........a	-327.68
	49	50	-4.77388E-001	-2.30349E-002	-2.84975E-001	-4.90000E-001	3.03478E-004	10	..........a	-327.68
	50	51	-4.88288E-001	-2.34946E-002	-2.89831E-001	-5.00000E-001	2.76378E-004	10	..........a	-327.68
	51	52	-4.98188E-001	-2.39420E-002	-2.95081E-001	-5.10000E-001	3.06978E-004	10	..........a	-327.68
	52	53	-5.07288E-001	-2.43577E-002	-3.00787E-001	-5.20000E-001	2.84411E-004	10	..........a	-327.68
	53	54	-5.16289E-001	-2.48054E-002	-3.06991E-001	-5.30000E-001	3.02311E-004	10	..........a	-327.68
	54	55	-5.26088E-001	-2.53183E-002	-3.12904E-001	-5.40000E-001	3.03494E-004	10	..........a	-327.68
	55	56	-5.35188E-001	-2.58968E-002	-3.20093E-001	-5.50000E-001	3.03744E-004	10	..........a	-327.68
	56	57	-5.42588E-001	-2.65025E-002	-3.28559E-001	-5.60000E-001	3.10361E-004	10	..........a	-327.68
	57	58	-5.52488E-001	-2.72049E-002	-3.35641E-001	-5.70000E-001	2.85794E-004	10	..........a	-327.68
	58	59	-5.61070E-001	-2.79735E-002	-3.45703E-001	-5.80000E-001	4.52628E-004	11	..........a	-327.68
	59	60	-5.70470E-001	-2.86649E-002	-3.53564E-001	-5.90000E-001	4.63478E-004	11	..........a	-327.68
	60	61	-5.79570E-001	-2.94945E-002	-3.64418E-001	-6.00000E-001	4.48144E-004	11	..........a	-327.68
	61	62	-5.89271E-001	-3.01630E-002	-3.72486E-001	-6.10000E-001	4.36744E-004	11	..........a	-327.68
	62	63	-5.99871E-001	-3.09901E-002	-3.82871E-001	-6.20000E-001	4.65411E-004	11	..........a	-327.68
	63	64	-6.10070E-001	-3.16202E-002	-3.90586E-001	-6.30000E-001	4.60278E-004	11	..........a	-327.68
	64	65	-6.20870E-001	-3.23666E-002	-4.00001E-001	-6.40000E-001	4.52094E-004	11	..........a	-327.68
	65	66	-6.31270E-001	-3.29749E-002	-4.07422E-001	-6.50000E-001	4.62428E-004	11	..........a	-327.68
	66	67	-6.41870E-001	-3.36705E-002	-4.16295E-001	-6.60000E-001	4.61144E-004	11	..........a	-327.68
	67	68	-6.51670E-001	-3.42513E-002	-4.23947E-001	-6.70000E-001	4.53794E-004	11	..........a	-327.68
	68	69	-6.62170E-001	-3.48926E-002	-4.32115E-001	-6.80000E-001	4.50944E-004	11	..........a	-327.68
	69	70	-6.72071E-001	-3.54731E-002	-4.39909E-001	-6.90000E-001	4.69361E-004	11	..........a	-327.68
	70	71	-6.82170E-001	-3.60762E-002	-4.47848E-001	-7.00000E-001	4.71728E-004	11	..........a	-327.68
	71	72	-6.92870E-001	-3.66799E-002	-4.55097E-001	-7.10000E-001	4.69728E-004	11	..........a	-327.68
	72	73	-7.03370E-001	-3.72433E-002	-4.62355E-001	-7.20000E-001	4.67078E-004	11	..........a	-327.68
	73	74	-7.13370E-001	-3.78121E-002	-4.69582E-001	-7.30000E-001	2.53661E-004	11	..........a	-327.68
	74	75	-7.22770E-001	-3.83691E-002	-4.77413E-001	-7.40000E-001	3.28478E-004	11	..........a	-327.68
	75	76	-7.33171E-001	-3.89410E-002	-4.84276E-001	-7.50000E-001	3.49044E-004	11	..........a	-327.68
	76	77	-7.43870E-001	-3.95530E-002	-4.91511E-001	-7.60000E-001	3.48961E-004	11	..........a	-327.68
	77	78	-7.53170E-001	-4.00697E-002	-4.98962E-001	-7.70000E-001	3.27894E-004	11	..........a	-327.68
	78	79	-7.63070E-001	-4.06366E-002	-5.06342E-001	-7.80000E-001	3.35728E-004	11	..........a	-327.68
	79	80	-7.72570E-001	-4.12141E-002	-5.14354E-001	-7.90000E-001	3.45978E-004	11	..........a	-327.68
	80	81	-7.82970E-001	-4.17694E-002	-5.21142E-001	-8.00000E-001	3.51861E-004	11	..........a	-327.68
	81	82	-7.92070E-001	-4.23811E-002	-5.30029E-001	-8.10000E-001	3.50928E-004	11	..........a	-327.68
	82	83	-8.01371E-001	-4.29257E-002	-5.37620E-001	-8.20000E-001	3.95728E-004	11	..........a	-327.68
	83	84	-8.11770E-001	-4.35715E-002	-5.45938E-001	-8.30000E-001	4.36078E-004	11	..........a	-327.68
	84	85	-8.20170E-001	-4.42083E-002	-5.55053E-001	-8.40000E-001	3.96228E-004	11	..........a	-327.68
	85	86	-8.29370E-001	-4.49031E-002	-5.64209E-001	-8.50000E-001	4.49244E-004	11	..........a	-327.68
	86	87	-8.39370E-001	-4.56269E-002	-5.73205E-001	-8.60000E-001	4.41428E-004	11	..........a	-327.68
	87	88	-8.48170E-001	-4.63600E-002	-5.83600E-001	-8.70000E-001	4.43711E-004	11	..........a	-327.68
	88	89	-8.56970E-001	-4.71341E-002	-5.93853E-001	-8.80000E-001	4.44528E-004	11	..........a	-327.68
	89	90	-8.65770E-001	-4.79995E-002	-6.05349E-001	-8.90000E-001	3.89344E-004	11	..........a	-327.68
	90	91	-8.74170E-001	-4.88915E-002	-6.17091E-001	-9.00000E-001	4.42344E-004	11	..........a	-327.68
	91	92	-8.83670E-001	-4.99078E-002	-6.29023E-001	-9.10000E-001	4.48861E-004	11	..........a	-327.68
	92	93	-8.92770E-001	-5.09539E-002	-6.41666E-001	-9.20000E-001	4.30478E-004	11	..........a	-327.68
	93	94	-9.01670E-001	-5.19721E-002	-6.54764E-001	-9.30000E-001	4.97744E-004	11	..........a	-327.68
	94	95	-9.11470E-001	-5.30795E-002	-6.67733E-001	-9.40000E-001	3.79244E-004	11	..........a	-327.68
	95	96	-9.20170E-001	-5.41671E-002	-6.82091E-001	-9.50000E-001	4.87728E-004	11	..........a	-327.68
	96	97	-9.29170E-001	-5.52375E-002	-6.95721E-001	-9.60000E-001	4.98594E-004	11	..........a	-327.68
	97	98	-9.38470E-001	-5.63971E-002	-7.10713E-001	-9.70000E-001	4.76544E-004	11	..........a	-327.68
	98	99	-9.48270E-001	-5.75049E-002	-7.24627E-001	-9.80000E-001	4.93594E-004	11	..........a	-327.68
	99	100	-9.58170E-001	-5.86840E-002	-7.39749E-001	-9.90000E-001	4.59944E-004	11	..........a	-327.68
	100	101	-9.67970E-001	-5.98128E-002	-7.53939E-001	-1.00000E+000	4.72778E-004	11	..........a	-327.68
	101	102	-9.77670E-001	-6.10035E-002	-7.69187E-001	-1.01000E+000	4.85878E-004	11	..........a	-327.68
	102	103	-9.87770E-001	-6.21071E-002	-7.83292E-001	-1.02000E+000	3.28111E-004	11	..........a	-327.68
	103	104	-9.98270E-001	-6.32969E-002	-7.98043E-001	-1.03000E+000	4.19028E-004	11	..........a	-327.68
	104	105	-1.00937E+000	-6.44348E-002	-8.10939E-001	-1.04000E+000	4.72394E-004	11	..........a	-327.68
	105	106	-1.01997E+000	-6.55000E-002	-8.25063E-001	-1.05000E+000	4.84328E-004	11	..........a	-327.68
	106	107	-1.03087E+000	-6.63925E-002	-8.37108E-001	-1.06000E+000	4.60594E-004	11	..........a	-327.68
	107	108	-1.04297E+000	-6.72895E-002	-8.49027E-001	-1.07000E+000	3.79611E-004	11	..........a	-327.68
	108	109	-1.05357E+000	-6.79541E-002	-8.60437E-001	-1.08000E+000	4.72094E-004	11	..........a	-327.68
	109	110	-1.06637E+000	-6.87102E-002	-8.69623E-001	-1.09000E+000	4.68494E-004	11	..........a	-327.68
	110	111	-1.07887E+000	-6.94302E-002	-8.78631E-001	-1.10000E+000	4.61878E-004	11	..........a	-327.68
	111	112	-1.09257E+000	-6.99143E-002	-8.83767E-001	-1.11000E+000	4.21028E-004	11	..........a	-327.68
	112	113	-1.10567E+000	-7.03385E-002	-8.89879E-001	-1.12000E+000	4.67044E-004	11	..........a	-327.68
	113	114	-1.11937E+000	-7.05444E-002	-8.91295E-001	-1.13000E+000	4.54761E-004	11	..........a	-327.68
	114	115	-1.13347E+000	-7.07916E-002	-8.93286E-001	-1.14000E+000	4.23028E-004	11	..........a	-327.68
	115	116	-1.14767E+000	-7.07322E-002	-8.90422E-001	-1.15000E+000	4.28344E-004	11	..........a	-327.68
	116	117	-1.16247E+000	-7.08742E-002	-8.87474E-001	-1.16000E+000	4.56478E-004	11	..........a	-327.68
	117	118	-1.17687E+000	-7.09427E-002	-8.80265E-001	-1.17000E+000	4.45261E-004	11	..........a	-327.68
	118	119	-1.19087E+000	-7.06441E-002	-8.73463E-001	-1.18000E+000	4.72478E-004	11	..........a	-327.68
	119	120	-1.20347E+000	-7.01181E-002	-8.63568E-001	-1.19000E+000	4.60828E-004	11	..........a	-327.68
	120	121	-1.21607E+000	-6.96278E-002	-8.54212E-001	-1.20000E+000	4.68078E-004	11	..........a	-327.68
	121	122	-1.22627E+000	-6.89785E-002	-8.43982E-001	-1.21000E+000	4.62311E-004	11	..........a	-327.68
	122	123	-1.23727E+000	-6.83106E-002	-8.33719E-001	-1.22000E+000	4.81294E-004	11	..........a	-327.68
	123	124	-1.24677E+000	-6.76353E-002	-8.23980E-001	-1.23000E+000	4.74361E-004	11	..........a	-327.68
	124	125	-1.25487E+000	-6.69616E-002	-8.15659E-001	-1.24000E+000	4.73128E-004	11	..........a	-327.68
	125	126	-1.26417E+000	-6.63349E-002	-8.06597E-001	-1.25000E+000	4.69728E-004	11	..........a	-327.68
	126	127	-1.27237E+000	-6.58631E-002	-8.00155E-001	-1.26000E+000	4.14528E-004	11	..........a	-327.68
	127	128	-1.27927E+000	-6.53292E-002	-7.93987E-001	-1.27000E+000	4.52744E-004	11	..........a	-327.68
	128	129	-1.28697E+000	-6.50217E-002	-7.90022E-001	-1.28000E+000	4.60794E-004	11	..........a	-327.68
	129	130	-1.29467E+000	-6.47463E-002	-7.86073E-001	-1.29000E+000	4.11494E-004	11	..........a	-327.68
	130	131	-1.30197E+000	-6.46438E-002	-7.84881E-001	-1.30000E+000	3.76844E-004	11	..........a	-327.68
	131	132	-1.30987E+000	-6.45735E-002	-7.82921E-001	-1.31000E+000	4.58811E-004	11	..........a	-327.68
	132	133	-1.31717E+000	-6.47125E-002	-7.84541E-001	-1.32000E+000	3.83761E-004	11	..........a	-327.68
	133	134	-1.32367E+000	-6.48057E-002	-7.85929E-001	-1.33000E+000	4.88178E-004	11	..........a	-327.68
	134	135	-1.33107E+000	-6.51552E-002	-7.90241E-001	-1.34000E+000	9.10211E-004	11	..........a	-327.68
	135	136	-1.33917E+000	-6.54577E-002	-7.93745E-001	-1.35000E+000	8.96844E-004	11	..........a	-327.68
	136	137	-1.34707E+000	-6.60066E-002	-7.99955E-001	-1.36000E+000	6.55711E-004	11	..........a	-327.68
	137	138	-1.35327E+000	-6.64865E-002	-8.07436E-001	-1.37000E+000	9.02811E-004	11	..........a	-327.68
	138	139	-1.36157E+000	-6.72006E-002	-8.15120E-001	-1.38000E+000	6.70078E-004	11	..........a	-327.68
	139	140	-1.36957E+000	-6.80521E-002	-8.24734E-001	-1.39000E+000	8.96761E-004	11	..........a	-327.68
	140	141	-1.37747E+000	-6.89009E-002	-8.34401E-001	-1.40000E+000	8.92611E-004	11	..........a	-327.68
	141	142	-1.38507E+000	-6.98874E-002	-8.46313E-001	-1.41000E+000	8.34478E-004	11	..........a	-327.68
	142	143	-1.39197E+000	-7.08453E-002	-8.59183E-001	-1.42000E+000	8.78128E-004	11	..........a	-327.68
	143	144	-1.40807E+000	-7.60245E-002	-8.64809E-001	-1.43000E+000	9.06678E-004	11	..........a	-327.68
	144	145	-1.41827E+000	-7.73111E-002	-8.77589E-001	-1.44000E+000	9.19211E-004	11	..........a	-327.68
	145	146	-1.42607E+000	-7.80297E-002	-8.85153E-001	-1.45000E+000	9.10078E-004	11	..........a	-327.68
	146	147	-1.43417E+000	-7.94241E-002	-8.99911E-001	-1.46000E+000	8.82061E-004	11	..........a	-327.68
	147	148	-1.44297E+000	-8.04795E-002	-9.08885E-001	-1.47000E+000	3.18544E-004	11	..........a	-327.68
	148	149	-1.45067E+000	-8.19323E-002	-9.25826E-001	-1.48000E+000	3.20344E-004	11	..........a	-327.68
	149	150	-1.45837E+000	-8.29552E-002	-9.37198E-001	-1.49000E+000	3.27278E-004	11	..........a	-327.68
	150	151	-1.46657E+000	-8.45981E-002	-9.55721E-001	-1.50000E+000	3.25844E-004	11	..........a	-327.68
