EXPLAIN
TAG	POTENTIODYNAMIC
TITLE	LABEL	Potentiodynamic Scan	Test Identifier
DATE	LABEL	7.2.2023	Date
TIME	LABEL	16:48:32	Time
NOTES	NOTES	1	Notes...
	
PSTAT	PSTAT	REF3000-19129	Potentiostat
VINIT	POTEN	0.00000E+000	F	Initial E (V)
VFINAL	POTEN	-1.50000E+000	F	Final E (V)
SCANRATE	QUANT	1.00000E+001	Scan Rate (mV/s)
SAMPLETIME	QUANT	1.00000E+000	Sample Period (s)
AREA	QUANT	1.00000E+000	Sample Area (cm^2)
DENSITY	QUANT	7.87000E+000	Density (g/cm^3)
EQUIV	QUANT	2.79200E+001	Equiv. Wt
IRCOMP	TOGGLE	T	IR Comp
EOC	QUANT	0	Open Circuit (V)
SEQUENCER	TOGGLE	TRUE	Run as Sequence
PSTATMODEL	IQUANT	5	Pstat Model
PSTATSECTION	LABEL	REF3000-19129	Pstat Section
PSTATSERIALNO	LABEL	19129	Pstat Serial Number
CTRLMODE	IQUANT	1	Control Mode
ELECTROMETER	IQUANT	0	RE=0 or CS=1
IESTAB	IQUANT	2	I/E Stability
CASPEED	IQUANT	4	Control Amp Speed
CONVENTION	IQUANT	1	Current Convention
ICHRANGE	IQUANT	2	Ich Range
ICHRANGEMODE	TOGGLE	T	Ich Auto Range
ICHOFFSETENABLE	TOGGLE	F	Ich Offset Enable
ICHOFFSET	QUANT	0	Ich Offset (V)
ICHFILTER	IQUANT	3	Ich Filter
VCHRANGE	IQUANT	3	Vch Range
VCHRANGEMODE	TOGGLE	T	Vch Auto Range
VCHOFFSETENABLE	TOGGLE	F	Vch Offset Enable
VCHOFFSET	QUANT	0	Vch Offset (V)
VCHFILTER	IQUANT	1	Vch Filter
ACHRANGE	IQUANT	2	Ach Range
ACHOFFSETENABLE	TOGGLE	F	Ach Offset Enable
ACHOFFSET	QUANT	0	Ach Offset (V)
ACHFILTER	IQUANT	1	Ach Filter
IERANGELOWERLIMIT	IQUANT	4	I/E Range Lower Limit
IERANGEMODE	TOGGLE	T	I/E AutoRange
IERANGE	IQUANT	11	I/E Range
POSFEEDENABLE	TOGGLE	F	Positive Feedback IR Comp
POSFEEDRESISTANCE	QUANT	0	Positive Feedback Resistance (ohm)
ACHSELECT	IQUANT	0	Ach Select
SENSECABLEID	IQUANT	14	Sense Cable ID
PWRCABLEID	IQUANT	13	Power Cable ID
DCCALDATE	LABEL	11/22/2022	DC Calibration Date
ACCALDATE	LABEL		AC Calibration Date
THERMOSELECT	IQUANT	1	Thermo Select
FRAMEWORKVERSION	QUANT	7.07	Framework Version
INSTRUMENTVERSION	LABEL	4.35	Instrument Version
COMPLIANCEVOLTAGE	IQUANT	0	Compliance Voltage
CURVE	TABLE	151
	Pt	T	Vf	Im	Vu	Sig	Ach	IERange	Over	Temp
	#	s	V vs. Ref.	A	V	V	V	#	bits	deg C
	0	1	-1.70293E-004	-5.75463E-004	-1.39763E-002	-5.96046E-008	3.13244E-004	9	..........a	-327.68
	1	2	-9.98447E-003	-5.69215E-004	-1.45369E-002	-1.00001E-002	3.13644E-004	9	..........a	-327.68
	2	3	-1.95006E-002	-5.72447E-004	-1.43502E-002	-2.00001E-002	2.98478E-004	9	..........a	-327.68
	3	4	-2.97106E-002	-5.91815E-004	-1.46377E-002	-3.00001E-002	3.15911E-004	9	..........a	-327.68
	4	5	-3.90106E-002	-6.12729E-004	-1.50604E-002	-4.00001E-002	3.06544E-004	9	..........a	-327.68
	5	6	-4.89106E-002	-6.43896E-004	-1.56479E-002	-5.00001E-002	3.08778E-004	9	..........a	-327.68
	6	7	-5.83806E-002	-6.77852E-004	-1.63983E-002	-6.00001E-002	3.19178E-004	9	..........a	-327.68
	7	8	-6.83106E-002	-7.19890E-004	-1.72047E-002	-7.00001E-002	3.07561E-004	9	..........a	-327.68
	8	9	-7.84106E-002	-7.66057E-004	-1.78372E-002	-8.00001E-002	3.09461E-004	9	..........a	-327.68
	9	10	-8.83706E-002	-8.17035E-004	-1.86083E-002	-9.00001E-002	3.20744E-004	9	..........a	-327.68
	10	11	-9.78406E-002	-8.70942E-004	-1.96218E-002	-1.00000E-001	3.20944E-004	9	..........a	-327.68
	11	12	-1.07491E-001	-9.31976E-004	-2.06999E-002	-1.10000E-001	3.20511E-004	9	..........a	-327.68
	12	13	-1.17351E-001	-1.00089E-003	-2.18121E-002	-1.20000E-001	3.18894E-004	9	..........a	-327.68
	13	14	-1.27421E-001	-1.07834E-003	-2.29698E-002	-1.30000E-001	3.08878E-004	9	..........a	-327.68
	14	15	-1.37131E-001	-1.16163E-003	-2.42336E-002	-1.40000E-001	3.19411E-004	9	..........a	-327.68
	15	16	-1.47101E-001	-1.25576E-003	-2.54921E-002	-1.50000E-001	3.28094E-004	9	..........a	-327.68
	16	17	-1.56781E-001	-1.36034E-003	-2.70320E-002	-1.60000E-001	3.13261E-004	9	..........a	-327.68
	17	18	-1.66641E-001	-1.47654E-003	-2.83906E-002	-1.70000E-001	2.75328E-004	9	..........a	-327.68
	18	19	-1.76571E-001	-1.60740E-003	-2.99265E-002	-1.80000E-001	2.21211E-004	9	..........a	-327.68
	19	20	-1.86411E-001	-1.75169E-003	-3.15498E-002	-1.90000E-001	2.99511E-004	9	..........a	-327.68
	20	21	-1.95931E-001	-1.90982E-003	-3.34948E-002	-2.00000E-001	3.10678E-004	9	..........a	-327.68
	21	22	-2.05611E-001	-2.08331E-003	-3.52727E-002	-2.10000E-001	3.00578E-004	9	..........a	-327.68
	22	23	-2.14831E-001	-2.27832E-003	-3.80310E-002	-2.20000E-001	3.05261E-004	9	..........a	-327.68
	23	24	-2.24671E-001	-2.48300E-003	-3.98945E-002	-2.30000E-001	3.38528E-004	9	..........a	-327.68
	24	25	-2.34441E-001	-2.71739E-003	-4.28077E-002	-2.40000E-001	3.35078E-004	9	..........a	-327.68
	25	26	-2.43288E-001	-2.95860E-003	-4.56436E-002	-2.50000E-001	1.30456E-003	10	..........a	-327.68
	26	27	-2.53188E-001	-3.21791E-003	-4.85319E-002	-2.60000E-001	1.28183E-003	10	..........a	-327.68
	27	28	-2.62589E-001	-3.49325E-003	-5.20203E-002	-2.70000E-001	1.32018E-003	10	..........a	-327.68
	28	29	-2.71988E-001	-3.77755E-003	-5.53941E-002	-2.80000E-001	1.30826E-003	10	..........a	-327.68
	29	30	-2.81488E-001	-4.08670E-003	-5.93117E-002	-2.90000E-001	1.32159E-003	10	..........a	-327.68
	30	31	-2.90789E-001	-4.40612E-003	-6.35598E-002	-3.00000E-001	1.32788E-003	10	..........a	-327.68
	31	32	-3.00388E-001	-4.74296E-003	-6.76811E-002	-3.10000E-001	1.30196E-003	10	..........a	-327.68
	32	33	-3.09488E-001	-5.09971E-003	-7.27388E-002	-3.20000E-001	1.27558E-003	10	..........a	-327.68
	33	34	-3.19188E-001	-5.47106E-003	-7.73090E-002	-3.30000E-001	1.27021E-003	10	..........a	-327.68
	34	35	-3.29288E-001	-5.86979E-003	-8.21782E-002	-3.40000E-001	1.26633E-003	10	..........a	-327.68
	35	36	-3.38488E-001	-6.26408E-003	-8.74852E-002	-3.50000E-001	1.30471E-003	10	..........a	-327.68
	36	37	-3.47788E-001	-6.68380E-003	-9.36366E-002	-3.60000E-001	1.51578E-004	10	..........a	-327.68
	37	38	-3.57388E-001	-7.11115E-003	-9.93017E-002	-3.70000E-001	4.54277E-005	10	..........a	-327.68
	38	39	-3.67888E-001	-7.58152E-003	-1.05028E-001	-3.80000E-001	1.28094E-004	10	..........a	-327.68
	39	40	-3.77588E-001	-8.03656E-003	-1.10856E-001	-3.90000E-001	1.05261E-004	10	..........a	-327.68
	40	41	-3.87088E-001	-8.50677E-003	-1.17107E-001	-4.00000E-001	6.87777E-005	10	..........a	-327.68
	41	42	-3.96188E-001	-8.98583E-003	-1.23609E-001	-4.10000E-001	1.51794E-004	10	..........a	-327.68
	42	43	-4.13088E-001	-9.85203E-003	-1.22986E-001	-4.20000E-001	1.37944E-004	10	..........a	-327.68
	43	44	-4.21588E-001	-1.02488E-002	-1.31013E-001	-4.30000E-001	1.19961E-004	10	..........a	-327.68
	44	45	-4.27688E-001	-1.05556E-002	-1.34402E-001	-4.40000E-001	7.66277E-005	10	..........a	-327.68
	45	46	-4.38488E-001	-1.11538E-002	-1.41546E-001	-4.50000E-001	1.54328E-004	10	..........a	-327.68
	46	47	-4.48188E-001	-1.16010E-002	-1.45248E-001	-4.60000E-001	1.39328E-004	10	..........a	-327.68
	47	48	-4.57088E-001	-1.21761E-002	-1.53361E-001	-4.70000E-001	1.75178E-004	10	..........a	-327.68
	48	49	-4.64988E-001	-1.26418E-002	-1.59204E-001	-4.80000E-001	2.94778E-004	10	..........a	-327.68
	49	50	-4.75488E-001	-1.32666E-002	-1.66596E-001	-4.90000E-001	3.05678E-004	10	..........a	-327.68
	50	51	-4.85088E-001	-1.38190E-002	-1.73005E-001	-5.00000E-001	2.90078E-004	10	..........a	-327.68
	51	52	-4.94688E-001	-1.44220E-002	-1.80651E-001	-5.10000E-001	3.02161E-004	10	..........a	-327.68
	52	53	-5.04288E-001	-1.50170E-002	-1.87424E-001	-5.20000E-001	2.69894E-004	10	..........a	-327.68
	53	54	-5.14588E-001	-1.56646E-002	-1.94917E-001	-5.30000E-001	2.72761E-004	10	..........a	-327.68
	54	55	-5.23789E-001	-1.62783E-002	-2.02326E-001	-5.40000E-001	2.99511E-004	10	..........a	-327.68
	55	56	-5.33889E-001	-1.69470E-002	-2.09765E-001	-5.50000E-001	2.94661E-004	10	..........a	-327.68
	56	57	-5.43088E-001	-1.75994E-002	-2.17779E-001	-5.60000E-001	1.63478E-004	10	..........a	-327.68
	57	58	-5.52388E-001	-1.83100E-002	-2.25985E-001	-5.70000E-001	2.49411E-004	10	..........a	-327.68
	58	59	-5.61188E-001	-1.90369E-002	-2.35047E-001	-5.80000E-001	2.55811E-004	10	..........a	-327.68
	59	60	-5.70588E-001	-1.97915E-002	-2.43939E-001	-5.90000E-001	2.54028E-004	10	..........a	-327.68
	60	61	-5.79789E-001	-2.05947E-002	-2.53622E-001	-6.00000E-001	2.50178E-004	10	..........a	-327.68
	61	62	-5.89288E-001	-2.13736E-002	-2.63092E-001	-6.10000E-001	2.42561E-004	10	..........a	-327.68
	62	63	-5.99288E-001	-2.22199E-002	-2.72485E-001	-6.20000E-001	2.12428E-004	10	..........a	-327.68
	63	64	-6.08888E-001	-2.30455E-002	-2.82451E-001	-6.30000E-001	2.40544E-004	10	..........a	-327.68
	64	65	-6.18088E-001	-2.38987E-002	-2.92766E-001	-6.40000E-001	2.48678E-004	10	..........a	-327.68
	65	66	-6.26588E-001	-2.47902E-002	-3.04152E-001	-6.50000E-001	1.25494E-004	10	..........a	-327.68
	66	67	-6.37088E-001	-2.56547E-002	-3.13831E-001	-6.60000E-001	2.54428E-004	10	..........a	-327.68
	67	68	-6.47488E-001	-2.66372E-002	-3.24863E-001	-6.70000E-001	2.87761E-004	10	..........a	-327.68
	68	69	-6.56370E-001	-2.74635E-002	-3.35760E-001	-6.80000E-001	2.04178E-004	11	..........a	-327.68
	69	70	-6.66170E-001	-2.84037E-002	-3.46980E-001	-6.90000E-001	2.88044E-004	11	..........a	-327.68
	70	71	-6.76270E-001	-2.93732E-002	-3.57859E-001	-7.00000E-001	2.83644E-004	11	..........a	-327.68
	71	72	-6.85470E-001	-3.03322E-002	-3.69797E-001	-7.10000E-001	2.83728E-004	11	..........a	-327.68
	72	73	-6.94870E-001	-3.13041E-002	-3.81123E-001	-7.20000E-001	2.11361E-004	11	..........a	-327.68
	73	74	-7.04970E-001	-3.23055E-002	-3.93021E-001	-7.30000E-001	2.84694E-004	11	..........a	-327.68
	74	75	-7.14170E-001	-3.32988E-002	-4.05086E-001	-7.40000E-001	2.69878E-004	11	..........a	-327.68
	75	76	-7.24270E-001	-3.43521E-002	-4.16956E-001	-7.50000E-001	2.69644E-004	11	..........a	-327.68
	76	77	-7.33470E-001	-3.53946E-002	-4.29656E-001	-7.60000E-001	2.88278E-004	11	..........a	-327.68
	77	78	-7.42270E-001	-3.64718E-002	-4.42805E-001	-7.70000E-001	2.06678E-004	11	..........a	-327.68
	78	79	-7.52070E-001	-3.75697E-002	-4.55717E-001	-7.80000E-001	2.86561E-004	11	..........a	-327.68
	79	80	-7.60970E-001	-3.87092E-002	-4.69838E-001	-7.90000E-001	3.09278E-004	11	..........a	-327.68
	80	81	-7.72370E-001	-3.98410E-002	-4.81332E-001	-8.00000E-001	3.15928E-004	11	..........a	-327.68
	81	82	-7.81270E-001	-4.10712E-002	-4.96428E-001	-8.10000E-001	2.82578E-004	11	..........a	-327.68
	82	83	-7.90470E-001	-4.21387E-002	-5.08686E-001	-8.20000E-001	3.02611E-004	11	..........a	-327.68
	83	84	-7.99470E-001	-4.34709E-002	-5.24896E-001	-8.30000E-001	2.95461E-004	11	..........a	-327.68
	84	85	-8.09470E-001	-4.46129E-002	-5.37098E-001	-8.40000E-001	3.08611E-004	11	..........a	-327.68
	85	86	-8.19070E-001	-4.59693E-002	-5.53758E-001	-8.50000E-001	3.07294E-004	11	..........a	-327.68
	86	87	-8.27470E-001	-4.71429E-002	-5.67256E-001	-8.60000E-001	2.87911E-004	11	..........a	-327.68
	87	88	-8.36870E-001	-4.85198E-002	-5.84653E-001	-8.70000E-001	3.01578E-004	11	..........a	-327.68
	88	89	-8.45870E-001	-4.97685E-002	-5.99072E-001	-8.80000E-001	2.96194E-004	11	..........a	-327.68
	89	90	-8.55870E-001	-5.12534E-002	-6.16599E-001	-8.90000E-001	2.77711E-004	11	..........a	-327.68
	90	91	-8.65370E-001	-5.24669E-002	-6.31294E-001	-9.00000E-001	2.85594E-004	11	..........a	-327.68
	91	92	-8.75570E-001	-5.39986E-002	-6.48549E-001	-9.10000E-001	2.95978E-004	11	..........a	-327.68
	92	93	-8.85570E-001	-5.52366E-002	-6.63243E-001	-9.20000E-001	2.94878E-004	11	..........a	-327.68
	93	94	-8.95670E-001	-5.67369E-002	-6.80378E-001	-9.30000E-001	2.71094E-004	11	..........a	-327.68
	94	95	-9.05270E-001	-5.80191E-002	-6.95455E-001	-9.40000E-001	2.59978E-004	11	..........a	-327.68
	95	96	-9.15770E-001	-5.94467E-002	-7.12197E-001	-9.50000E-001	2.83594E-004	11	..........a	-327.68
	96	97	-9.25870E-001	-6.07377E-002	-7.27057E-001	-9.60000E-001	2.25461E-004	11	..........a	-327.68
	97	98	-9.37470E-001	-6.20429E-002	-7.42143E-001	-9.70000E-001	2.23578E-004	11	..........a	-327.68
	98	99	-9.47671E-001	-6.32821E-002	-7.56712E-001	-9.80000E-001	2.69744E-004	11	..........a	-327.68
	99	100	-9.59570E-001	-6.44333E-002	-7.70054E-001	-9.90000E-001	2.94528E-004	11	..........a	-327.68
	100	101	-9.71070E-001	-6.55579E-002	-7.82999E-001	-1.00000E+000	2.82728E-004	11	..........a	-327.68
	101	102	-9.82970E-001	-6.65458E-002	-7.94252E-001	-1.01000E+000	2.82894E-004	11	..........a	-327.68
	102	103	-9.95570E-001	-6.74297E-002	-8.04627E-001	-1.02000E+000	2.90928E-004	11	..........a	-327.68
	103	104	-1.00917E+000	-6.81901E-002	-8.12158E-001	-1.03000E+000	2.42411E-004	11	..........a	-327.68
	104	105	-1.02247E+000	-6.87551E-002	-8.19469E-001	-1.04000E+000	2.78728E-004	11	..........a	-327.68
	105	106	-1.03597E+000	-6.91638E-002	-8.23441E-001	-1.05000E+000	2.71194E-004	11	..........a	-327.68
	106	107	-1.04977E+000	-6.94767E-002	-8.26766E-001	-1.06000E+000	2.80378E-004	11	..........a	-327.68
	107	108	-1.06427E+000	-6.95220E-002	-8.26303E-001	-1.07000E+000	2.77928E-004	11	..........a	-327.68
	108	109	-1.07857E+000	-6.94815E-002	-8.25180E-001	-1.08000E+000	2.77678E-004	11	..........a	-327.68
	109	110	-1.09307E+000	-6.90453E-002	-8.20209E-001	-1.09000E+000	2.79711E-004	11	..........a	-327.68
	110	111	-1.10807E+000	-6.86453E-002	-8.14171E-001	-1.10000E+000	2.69894E-004	11	..........a	-327.68
	111	112	-1.12177E+000	-6.78763E-002	-8.05444E-001	-1.11000E+000	3.60944E-004	11	..........a	-327.68
	112	113	-1.13567E+000	-6.70519E-002	-7.95587E-001	-1.12000E+000	3.25628E-004	11	..........a	-327.68
	113	114	-1.14917E+000	-6.60574E-002	-7.83306E-001	-1.13000E+000	2.91478E-004	11	..........a	-327.68
	114	115	-1.16257E+000	-6.49181E-002	-7.69925E-001	-1.14000E+000	3.30661E-004	11	..........a	-327.68
	115	116	-1.17497E+000	-6.37302E-002	-7.55389E-001	-1.15000E+000	3.24028E-004	11	..........a	-327.68
	116	117	-1.18667E+000	-6.24107E-002	-7.40311E-001	-1.16000E+000	3.31978E-004	11	..........a	-327.68
	117	118	-1.19817E+000	-6.11354E-002	-7.24335E-001	-1.17000E+000	3.30944E-004	11	..........a	-327.68
	118	119	-1.20767E+000	-5.98278E-002	-7.09633E-001	-1.18000E+000	3.30644E-004	11	..........a	-327.68
	119	120	-1.21607E+000	-5.85438E-002	-6.95239E-001	-1.19000E+000	3.39278E-004	11	..........a	-327.68
	120	121	-1.22577E+000	-5.74441E-002	-6.81028E-001	-1.20000E+000	3.33561E-004	11	..........a	-327.68
	121	122	-1.23407E+000	-5.63154E-002	-6.68268E-001	-1.21000E+000	3.27894E-004	11	..........a	-327.68
	122	123	-1.24207E+000	-5.53285E-002	-6.56001E-001	-1.22000E+000	3.31928E-004	11	..........a	-327.68
	123	124	-1.24977E+000	-5.44343E-002	-6.45571E-001	-1.23000E+000	2.77411E-004	11	..........a	-327.68
	124	125	-1.25727E+000	-5.36286E-002	-6.35869E-001	-1.24000E+000	3.39794E-004	11	..........a	-327.68
	125	126	-1.26387E+000	-5.30026E-002	-6.28707E-001	-1.25000E+000	3.40694E-004	11	..........a	-327.68
	126	127	-1.27147E+000	-5.23833E-002	-6.21388E-001	-1.26000E+000	3.98928E-004	11	..........a	-327.68
	127	128	-1.27867E+000	-5.20380E-002	-6.17149E-001	-1.27000E+000	3.93911E-004	11	..........a	-327.68
	128	129	-1.28577E+000	-5.16568E-002	-6.12824E-001	-1.28000E+000	3.93111E-004	11	..........a	-327.68
	129	130	-1.29307E+000	-5.15343E-002	-6.11311E-001	-1.29000E+000	3.90628E-004	11	..........a	-327.68
	130	131	-1.29997E+000	-5.14084E-002	-6.09884E-001	-1.30000E+000	3.97944E-004	11	..........a	-327.68
	131	132	-1.30767E+000	-5.14537E-002	-6.10643E-001	-1.31000E+000	3.93728E-004	11	..........a	-327.68
	132	133	-1.31517E+000	-5.15834E-002	-6.11894E-001	-1.32000E+000	3.94694E-004	11	..........a	-327.68
	133	134	-1.32247E+000	-5.17908E-002	-6.15360E-001	-1.33000E+000	3.70361E-004	11	..........a	-327.68
	134	135	-1.32957E+000	-5.21191E-002	-6.19453E-001	-1.34000E+000	3.92244E-004	11	..........a	-327.68
	135	136	-1.33777E+000	-5.25807E-002	-6.24526E-001	-1.35000E+000	3.87394E-004	11	..........a	-327.68
	136	137	-1.34527E+000	-5.30987E-002	-6.31292E-001	-1.36000E+000	2.66861E-004	11	..........a	-327.68
	137	138	-1.35317E+000	-5.37294E-002	-6.38361E-001	-1.37000E+000	3.98661E-004	11	..........a	-327.68
	138	139	-1.36047E+000	-5.43955E-002	-6.47888E-001	-1.38000E+000	2.67311E-004	11	..........a	-327.68
	139	140	-1.36907E+000	-5.51851E-002	-6.56096E-001	-1.39000E+000	4.22311E-004	11	..........a	-327.68
	140	141	-1.37717E+000	-5.61060E-002	-6.67894E-001	-1.40000E+000	3.78111E-004	11	..........a	-327.68
	141	142	-1.38517E+000	-5.69543E-002	-6.77799E-001	-1.41000E+000	2.47744E-004	11	..........a	-327.68
	142	143	-1.39377E+000	-5.80804E-002	-6.91287E-001	-1.42000E+000	3.68844E-004	11	..........a	-327.68
	143	144	-1.40117E+000	-5.90215E-002	-7.03503E-001	-1.43000E+000	4.05311E-004	11	..........a	-327.68
	144	145	-1.41007E+000	-6.03139E-002	-7.18089E-001	-1.44000E+000	4.37444E-004	11	..........a	-327.68
	145	146	-1.41887E+000	-6.14348E-002	-7.31533E-001	-1.45000E+000	4.62944E-005	11	..........a	-327.68
	146	147	-1.42697E+000	-6.28064E-002	-7.47895E-001	-1.46000E+000	4.86611E-005	11	..........a	-327.68
	147	148	-1.43497E+000	-6.40852E-002	-7.63392E-001	-1.47000E+000	4.86611E-005	11	..........a	-327.68
	148	149	-1.44407E+000	-6.55759E-002	-7.80670E-001	-1.48000E+000	4.82444E-005	11	..........a	-327.68
	149	150	-1.45197E+000	-6.70534E-002	-7.98281E-001	-1.49000E+000	4.90611E-005	11	..........a	-327.68
	150	151	-1.46017E+000	-6.85755E-002	-8.17295E-001	-1.50000E+000	4.87777E-005	11	..........a	-327.68
