EXPLAIN
TAG	POTENTIODYNAMIC
TITLE	LABEL	Potentiodynamic Scan	Test Identifier
DATE	LABEL	7.2.2023	Date
TIME	LABEL	12:02:14	Time
NOTES	NOTES	1	Notes...
	
PSTAT	PSTAT	REF3000-19129	Potentiostat
VINIT	POTEN	0.00000E+000	F	Initial E (V)
VFINAL	POTEN	-1.50000E+000	F	Final E (V)
SCANRATE	QUANT	1.00000E+001	Scan Rate (mV/s)
SAMPLETIME	QUANT	1.00000E+000	Sample Period (s)
AREA	QUANT	1.00000E+000	Sample Area (cm^2)
DENSITY	QUANT	7.87000E+000	Density (g/cm^3)
EQUIV	QUANT	2.79200E+001	Equiv. Wt
IRCOMP	TOGGLE	T	IR Comp
EOC	QUANT	0	Open Circuit (V)
SEQUENCER	TOGGLE	TRUE	Run as Sequence
PSTATMODEL	IQUANT	5	Pstat Model
PSTATSECTION	LABEL	REF3000-19129	Pstat Section
PSTATSERIALNO	LABEL	19129	Pstat Serial Number
CTRLMODE	IQUANT	1	Control Mode
ELECTROMETER	IQUANT	0	RE=0 or CS=1
IESTAB	IQUANT	2	I/E Stability
CASPEED	IQUANT	4	Control Amp Speed
CONVENTION	IQUANT	1	Current Convention
ICHRANGE	IQUANT	2	Ich Range
ICHRANGEMODE	TOGGLE	T	Ich Auto Range
ICHOFFSETENABLE	TOGGLE	F	Ich Offset Enable
ICHOFFSET	QUANT	0	Ich Offset (V)
ICHFILTER	IQUANT	3	Ich Filter
VCHRANGE	IQUANT	3	Vch Range
VCHRANGEMODE	TOGGLE	T	Vch Auto Range
VCHOFFSETENABLE	TOGGLE	F	Vch Offset Enable
VCHOFFSET	QUANT	0	Vch Offset (V)
VCHFILTER	IQUANT	1	Vch Filter
ACHRANGE	IQUANT	2	Ach Range
ACHOFFSETENABLE	TOGGLE	F	Ach Offset Enable
ACHOFFSET	QUANT	0	Ach Offset (V)
ACHFILTER	IQUANT	1	Ach Filter
IERANGELOWERLIMIT	IQUANT	4	I/E Range Lower Limit
IERANGEMODE	TOGGLE	T	I/E AutoRange
IERANGE	IQUANT	11	I/E Range
POSFEEDENABLE	TOGGLE	F	Positive Feedback IR Comp
POSFEEDRESISTANCE	QUANT	0	Positive Feedback Resistance (ohm)
ACHSELECT	IQUANT	0	Ach Select
SENSECABLEID	IQUANT	14	Sense Cable ID
PWRCABLEID	IQUANT	13	Power Cable ID
DCCALDATE	LABEL	11/22/2022	DC Calibration Date
ACCALDATE	LABEL		AC Calibration Date
THERMOSELECT	IQUANT	1	Thermo Select
FRAMEWORKVERSION	QUANT	7.07	Framework Version
INSTRUMENTVERSION	LABEL	4.35	Instrument Version
COMPLIANCEVOLTAGE	IQUANT	0	Compliance Voltage
CURVE	TABLE	151
	Pt	T	Vf	Im	Vu	Sig	Ach	IERange	Over	Temp
	#	s	V vs. Ref.	A	V	V	V	#	bits	deg C
	0	1	6.29707E-004	-2.41911E-004	-6.37757E-003	-5.96046E-008	3.25178E-004	9	..........a	-327.68
	1	2	-9.78181E-003	-2.38908E-004	-5.78143E-003	-1.00001E-002	3.14994E-004	8	..........a	-327.68
	2	3	-2.00280E-002	-2.42495E-004	-5.85411E-003	-2.00001E-002	3.18278E-004	8	..........a	-327.68
	3	4	-2.91780E-002	-2.47442E-004	-5.94553E-003	-3.00001E-002	3.05428E-004	8	..........a	-327.68
	4	5	-3.88280E-002	-2.58282E-004	-6.25296E-003	-4.00001E-002	3.08994E-004	8	..........a	-327.68
	5	6	-4.86580E-002	-2.72758E-004	-6.61263E-003	-5.00001E-002	4.41228E-004	8	..........a	-327.68
	6	7	-5.88406E-002	-2.90748E-004	-7.01481E-003	-6.00001E-002	4.70261E-004	9	..........a	-327.68
	7	8	-6.85906E-002	-3.10653E-004	-7.49720E-003	-7.00001E-002	4.62144E-004	9	..........a	-327.68
	8	9	-7.84806E-002	-3.34865E-004	-8.08227E-003	-8.00001E-002	4.72011E-004	9	..........a	-327.68
	9	10	-8.84206E-002	-3.62210E-004	-8.62452E-003	-9.00001E-002	4.56878E-004	9	..........a	-327.68
	10	11	-9.83806E-002	-3.92882E-004	-9.13944E-003	-1.00000E-001	4.62261E-004	9	..........a	-327.68
	11	12	-1.08061E-001	-4.26867E-004	-9.95129E-003	-1.10000E-001	4.51161E-004	9	..........a	-327.68
	12	13	-1.17981E-001	-4.66251E-004	-1.07716E-002	-1.20000E-001	4.52544E-004	9	..........a	-327.68
	13	14	-1.27851E-001	-5.09654E-004	-1.16237E-002	-1.30000E-001	4.44561E-004	9	..........a	-327.68
	14	15	-1.37791E-001	-5.57661E-004	-1.24185E-002	-1.40000E-001	4.46011E-004	9	..........a	-327.68
	15	16	-1.49001E-001	-6.23288E-004	-1.19301E-002	-1.50000E-001	4.51594E-004	9	..........a	-327.68
	16	17	-1.59061E-001	-6.82349E-004	-1.28438E-002	-1.60000E-001	4.47294E-004	9	..........a	-327.68
	17	18	-1.67521E-001	-7.36254E-004	-1.38621E-002	-1.70000E-001	4.46078E-004	9	..........a	-327.68
	18	19	-1.77211E-001	-8.04677E-004	-1.49048E-002	-1.80000E-001	4.51228E-004	9	..........a	-327.68
	19	20	-1.87051E-001	-8.80190E-004	-1.60453E-002	-1.90000E-001	4.68061E-004	9	..........a	-327.68
	20	21	-1.96871E-001	-9.63057E-004	-1.74449E-002	-2.00000E-001	4.52711E-004	9	..........a	-327.68
	21	22	-2.06621E-001	-1.04887E-003	-1.86610E-002	-2.10000E-001	4.61661E-004	9	..........a	-327.68
	22	23	-2.16511E-001	-1.14593E-003	-2.02672E-002	-2.20000E-001	4.45611E-004	9	..........a	-327.68
	23	24	-2.26341E-001	-1.24620E-003	-2.16599E-002	-2.30000E-001	4.50344E-004	9	..........a	-327.68
	24	25	-2.36081E-001	-1.35470E-003	-2.33698E-002	-2.40000E-001	4.49228E-004	9	..........a	-327.68
	25	26	-2.45721E-001	-1.46927E-003	-2.52037E-002	-2.50000E-001	4.42994E-004	9	..........a	-327.68
	26	27	-2.55584E-001	-1.58983E-003	-2.67019E-002	-2.60000E-001	4.50378E-004	9	..........a	-327.68
	27	28	-2.65684E-001	-1.72147E-003	-2.85861E-002	-2.70000E-001	4.48661E-004	9	..........a	-327.68
	28	29	-2.75084E-001	-1.85225E-003	-3.06643E-002	-2.80000E-001	4.45878E-004	9	..........a	-327.68
	29	30	-2.84384E-001	-1.98632E-003	-3.30997E-002	-2.90000E-001	4.43928E-004	9	..........a	-327.68
	30	31	-2.92984E-001	-2.12508E-003	-3.66380E-002	-3.00000E-001	4.39361E-004	9	..........a	-327.68
	31	32	-3.03184E-001	-2.27528E-003	-3.88129E-002	-3.10000E-001	3.34594E-004	9	..........a	-327.68
	32	33	-3.13584E-001	-2.45094E-003	-4.20664E-002	-3.20000E-001	3.28011E-004	9	..........a	-327.68
	33	34	-3.23184E-001	-2.60600E-003	-4.44535E-002	-3.30000E-001	3.23628E-004	9	..........a	-327.68
	34	35	-3.33084E-001	-2.78584E-003	-4.77073E-002	-3.40000E-001	3.15428E-004	9	..........a	-327.68
	35	36	-3.43789E-001	-2.96319E-003	-4.99402E-002	-3.50000E-001	3.47278E-004	10	..........a	-327.68
	36	37	-3.53388E-001	-3.15349E-003	-5.35968E-002	-3.60000E-001	3.43711E-004	10	..........a	-327.68
	37	38	-3.62588E-001	-3.33171E-003	-5.65231E-002	-3.70000E-001	3.39694E-004	10	..........a	-327.68
	38	39	-3.72988E-001	-3.53893E-003	-5.96428E-002	-3.80000E-001	3.43261E-004	10	..........a	-327.68
	39	40	-3.81988E-001	-3.73820E-003	-6.36512E-002	-3.90000E-001	3.43361E-004	10	..........a	-327.68
	40	41	-3.91988E-001	-3.94937E-003	-6.68115E-002	-4.00000E-001	3.51628E-004	10	..........a	-327.68
	41	42	-4.01588E-001	-4.17779E-003	-7.13175E-002	-4.10000E-001	3.52128E-004	10	..........a	-327.68
	42	43	-4.10988E-001	-4.38379E-003	-7.48414E-002	-4.20000E-001	3.38061E-004	10	..........a	-327.68
	43	44	-4.20588E-001	-4.62175E-003	-7.97161E-002	-4.30000E-001	3.42961E-004	10	..........a	-327.68
	44	45	-4.29888E-001	-4.84377E-003	-8.38054E-002	-4.40000E-001	3.94494E-004	10	..........a	-327.68
	45	46	-4.39388E-001	-5.10389E-003	-8.92543E-002	-4.50000E-001	3.99961E-004	10	..........a	-327.68
	46	47	-4.48588E-001	-5.36202E-003	-9.40313E-002	-4.60000E-001	3.97228E-004	10	..........a	-327.68
	47	48	-4.69288E-001	-6.11277E-003	-8.87814E-002	-4.70000E-001	4.02444E-004	10	..........a	-327.68
	48	49	-4.79988E-001	-6.40813E-003	-9.28490E-002	-4.80000E-001	4.07211E-004	10	..........a	-327.68
	49	50	-4.83388E-001	-6.47076E-003	-9.42094E-002	-4.90000E-001	3.85844E-004	10	..........a	-327.68
	50	51	-4.91688E-001	-6.76064E-003	-9.98494E-002	-5.00000E-001	3.96294E-004	10	..........a	-327.68
	51	52	-4.99788E-001	-6.95357E-003	-1.03218E-001	-5.10000E-001	3.98461E-004	10	..........a	-327.68
	52	53	-5.07788E-001	-7.31139E-003	-1.10735E-001	-5.20000E-001	4.03328E-004	10	..........a	-327.68
	53	54	-5.15888E-001	-7.65194E-003	-1.16119E-001	-5.30000E-001	3.94144E-004	10	..........a	-327.68
	54	55	-5.23789E-001	-8.15726E-003	-1.25531E-001	-5.40000E-001	4.11378E-004	10	..........a	-327.68
	55	56	-5.31389E-001	-8.65351E-003	-1.33334E-001	-5.50000E-001	4.18211E-004	10	..........a	-327.68
	56	57	-5.40389E-001	-9.33418E-003	-1.43735E-001	-5.60000E-001	4.10261E-004	10	..........a	-327.68
	57	58	-5.46688E-001	-9.97433E-003	-1.55229E-001	-5.70000E-001	3.97444E-004	10	..........a	-327.68
	58	59	-5.55388E-001	-1.07136E-002	-1.66950E-001	-5.80000E-001	3.96561E-004	10	..........a	-327.68
	59	60	-5.63988E-001	-1.14874E-002	-1.79738E-001	-5.90000E-001	4.05344E-004	10	..........a	-327.68
	60	61	-5.72488E-001	-1.22694E-002	-1.93013E-001	-6.00000E-001	4.02928E-004	10	..........a	-327.68
	61	62	-5.81389E-001	-1.30964E-002	-2.06844E-001	-6.10000E-001	3.95161E-004	10	..........a	-327.68
	62	63	-5.90088E-001	-1.39363E-002	-2.21332E-001	-6.20000E-001	4.05911E-004	10	..........a	-327.68
	63	64	-5.99189E-001	-1.48023E-002	-2.35909E-001	-6.30000E-001	3.90478E-004	10	..........a	-327.68
	64	65	-6.07788E-001	-1.56892E-002	-2.51838E-001	-6.40000E-001	3.85044E-004	10	..........a	-327.68
	65	66	-6.16989E-001	-1.65834E-002	-2.67347E-001	-6.50000E-001	3.82428E-004	10	..........a	-327.68
	66	67	-6.26188E-001	-1.75323E-002	-2.83825E-001	-6.60000E-001	4.03594E-004	10	..........a	-327.68
	67	68	-6.34588E-001	-1.84921E-002	-3.00866E-001	-6.70000E-001	3.79694E-004	10	..........a	-327.68
	68	69	-6.43788E-001	-1.95106E-002	-3.18135E-001	-6.80000E-001	3.34528E-004	10	..........a	-327.68
	69	70	-6.53089E-001	-2.06627E-002	-3.35849E-001	-6.90000E-001	3.35011E-004	10	..........a	-327.68
	70	71	-6.77288E-001	-2.52630E-002	-3.38962E-001	-7.00000E-001	2.85894E-004	10	..........a	-327.68
	71	72	-6.87288E-001	-2.64723E-002	-3.56476E-001	-7.10000E-001	3.01878E-004	10	..........a	-327.68
	72	73	-6.92388E-001	-2.69873E-002	-3.64552E-001	-7.20000E-001	2.69844E-004	10	..........a	-327.68
	73	74	-7.01370E-001	-2.82276E-002	-3.83197E-001	-7.30000E-001	3.19844E-004	11	..........a	-327.68
	74	75	-7.06770E-001	-2.89699E-002	-3.96056E-001	-7.40000E-001	9.36878E-004	11	..........a	-327.68
	75	76	-7.15470E-001	-3.02224E-002	-4.16011E-001	-7.50000E-001	9.29228E-004	11	..........a	-327.68
	76	77	-7.22970E-001	-3.09774E-002	-4.31125E-001	-7.60000E-001	9.37311E-004	11	..........a	-327.68
	77	78	-7.31371E-001	-3.22850E-002	-4.52797E-001	-7.70000E-001	9.27344E-004	11	..........a	-327.68
	78	79	-7.38571E-001	-3.33967E-002	-4.70237E-001	-7.80000E-001	9.23378E-004	11	..........a	-327.68
	79	80	-7.46871E-001	-3.48301E-002	-4.93644E-001	-7.90000E-001	9.29444E-004	11	..........a	-327.68
	80	81	-7.54570E-001	-3.60475E-002	-5.13782E-001	-8.00000E-001	9.39994E-004	11	..........a	-327.68
	81	82	-7.62571E-001	-3.75681E-002	-5.39033E-001	-8.10000E-001	9.42744E-004	11	..........a	-327.68
	82	83	-7.70570E-001	-3.89395E-002	-5.61155E-001	-8.20000E-001	9.39128E-004	11	..........a	-327.68
	83	84	-7.79270E-001	-4.05608E-002	-5.87631E-001	-8.30000E-001	9.33794E-004	11	..........a	-327.68
	84	85	-7.86970E-001	-4.20374E-002	-6.12149E-001	-8.40000E-001	9.07561E-004	11	..........a	-327.68
	85	86	-7.96170E-001	-4.37319E-002	-6.39469E-001	-8.50000E-001	9.40344E-004	11	..........a	-327.68
	86	87	-8.04470E-001	-4.53373E-002	-6.65132E-001	-8.60000E-001	9.28594E-004	11	..........a	-327.68
	87	88	-8.13470E-001	-4.70927E-002	-6.93772E-001	-8.70000E-001	9.38644E-004	11	..........a	-327.68
	88	89	-8.22770E-001	-4.87350E-002	-7.20160E-001	-8.80000E-001	3.24928E-004	11	..........a	-327.68
	89	90	-8.32671E-001	-5.05129E-002	-7.48676E-001	-8.90000E-001	3.32178E-004	11	..........a	-327.68
	90	91	-8.41170E-001	-5.21731E-002	-7.76734E-001	-9.00000E-001	3.26011E-004	11	..........a	-327.68
	91	92	-8.51170E-001	-5.39369E-002	-8.05216E-001	-9.10000E-001	3.29328E-004	11	..........a	-327.68
	92	93	-8.61070E-001	-5.56803E-002	-8.33051E-001	-9.20000E-001	3.32461E-004	11	..........a	-327.68
	93	94	-8.71670E-001	-5.74016E-002	-8.61086E-001	-9.30000E-001	3.48878E-004	11	..........a	-327.68
	94	95	-8.82170E-001	-5.90616E-002	-8.88334E-001	-9.40000E-001	3.49011E-004	11	..........a	-327.68
	95	96	-8.93171E-001	-6.07077E-002	-9.15246E-001	-9.50000E-001	3.46728E-004	11	..........a	-327.68
	96	97	-9.05270E-001	-6.22862E-002	-9.40359E-001	-9.60000E-001	3.41978E-004	11	..........a	-327.68
	97	98	-9.17171E-001	-6.38139E-002	-9.65445E-001	-9.70000E-001	3.39828E-004	11	..........a	-327.68
	98	99	-9.29271E-001	-6.52050E-002	-9.88217E-001	-9.80000E-001	3.41511E-004	11	..........a	-327.68
	99	100	-9.42971E-001	-6.65425E-002	-1.00972E+000	-9.90000E-001	3.36228E-004	11	..........a	-327.68
	100	101	-9.57270E-001	-6.76854E-002	-1.02812E+000	-1.00000E+000	3.37661E-004	11	..........a	-327.68
	101	102	-9.72670E-001	-6.86911E-002	-1.04423E+000	-1.01000E+000	3.18211E-004	11	..........a	-327.68
	102	103	-9.87770E-001	-6.94640E-002	-1.05737E+000	-1.02000E+000	3.08811E-004	11	..........a	-327.68
	103	104	-1.00487E+000	-7.00346E-002	-1.06643E+000	-1.03000E+000	3.12128E-004	11	..........a	-327.68
	104	105	-1.02207E+000	-7.03039E-002	-1.07219E+000	-1.04000E+000	3.16661E-004	11	..........a	-327.68
	105	106	-1.04047E+000	-7.03282E-002	-1.07304E+000	-1.05000E+000	3.13244E-004	11	..........a	-327.68
	106	107	-1.05907E+000	-7.01244E-002	-1.07013E+000	-1.06000E+000	3.12328E-004	11	..........a	-327.68
	107	108	-1.07757E+000	-6.95557E-002	-1.06245E+000	-1.07000E+000	3.15044E-004	11	..........a	-327.68
	108	109	-1.09687E+000	-6.87342E-002	-1.05034E+000	-1.08000E+000	3.15444E-004	11	..........a	-327.68
	109	110	-1.11527E+000	-6.76032E-002	-1.03421E+000	-1.09000E+000	3.10111E-004	11	..........a	-327.68
	110	111	-1.13407E+000	-6.62236E-002	-1.01314E+000	-1.10000E+000	3.08994E-004	11	..........a	-327.68
	111	112	-1.14977E+000	-6.46732E-002	-9.91520E-001	-1.11000E+000	2.73111E-004	11	..........a	-327.68
	112	113	-1.16547E+000	-6.29118E-002	-9.64764E-001	-1.12000E+000	3.29894E-004	11	..........a	-327.68
	113	114	-1.17967E+000	-6.11636E-002	-9.38872E-001	-1.13000E+000	3.31761E-004	11	..........a	-327.68
	114	115	-1.19107E+000	-5.92358E-002	-9.10776E-001	-1.14000E+000	3.27894E-004	11	..........a	-327.68
	115	116	-1.20237E+000	-5.74256E-002	-8.83550E-001	-1.15000E+000	3.34211E-004	11	..........a	-327.68
	116	117	-1.21107E+000	-5.55746E-002	-8.56826E-001	-1.16000E+000	3.06111E-004	11	..........a	-327.68
	117	118	-1.21997E+000	-5.38200E-002	-8.30720E-001	-1.17000E+000	3.20861E-004	11	..........a	-327.68
	118	119	-1.22767E+000	-5.21659E-002	-8.06358E-001	-1.18000E+000	3.20811E-004	11	..........a	-327.68
	119	120	-1.23407E+000	-5.06063E-002	-7.83948E-001	-1.19000E+000	2.80028E-004	11	..........a	-327.68
	120	121	-1.24057E+000	-4.91794E-002	-7.63018E-001	-1.20000E+000	3.14978E-004	11	..........a	-327.68
	121	122	-1.24697E+000	-4.79192E-002	-7.44305E-001	-1.21000E+000	3.02011E-004	11	..........a	-327.68
	122	123	-1.25317E+000	-4.67785E-002	-7.27180E-001	-1.22000E+000	2.98861E-004	11	..........a	-327.68
	123	124	-1.25847E+000	-4.57741E-002	-7.13155E-001	-1.23000E+000	3.21544E-004	11	..........a	-327.68
	124	125	-1.26497E+000	-4.48914E-002	-6.99605E-001	-1.24000E+000	3.22728E-004	11	..........a	-327.68
	125	126	-1.27057E+000	-4.41961E-002	-6.90079E-001	-1.25000E+000	2.95711E-004	11	..........a	-327.68
	126	127	-1.27617E+000	-4.35563E-002	-6.80621E-001	-1.26000E+000	3.12478E-004	11	..........a	-327.68
	127	128	-1.28137E+000	-4.31667E-002	-6.76101E-001	-1.27000E+000	3.10061E-004	11	..........a	-327.68
	128	129	-1.28747E+000	-4.27909E-002	-6.70450E-001	-1.28000E+000	2.91161E-004	11	..........a	-327.68
	129	130	-1.29357E+000	-4.27033E-002	-6.69824E-001	-1.29000E+000	3.18828E-004	11	..........a	-327.68
	130	131	-1.29917E+000	-4.25736E-002	-6.68652E-001	-1.30000E+000	3.19711E-004	11	..........a	-327.68
	131	132	-1.30497E+000	-4.27007E-002	-6.72142E-001	-1.31000E+000	3.28094E-004	11	..........a	-327.68
	132	133	-1.31207E+000	-4.28293E-002	-6.74064E-001	-1.32000E+000	2.91761E-004	11	..........a	-327.68
	133	134	-1.31857E+000	-4.32626E-002	-6.80641E-001	-1.33000E+000	1.13131E-003	11	..........a	-327.68
	134	135	-1.32477E+000	-4.35655E-002	-6.86164E-001	-1.34000E+000	1.13481E-003	11	..........a	-327.68
	135	136	-1.33267E+000	-4.41471E-002	-6.95024E-001	-1.35000E+000	1.10786E-003	11	..........a	-327.68
	136	137	-1.33887E+000	-4.46728E-002	-7.04270E-001	-1.36000E+000	1.09793E-003	11	..........a	-327.68
	137	138	-1.34597E+000	-4.53790E-002	-7.15866E-001	-1.37000E+000	1.07738E-003	11	..........a	-327.68
	138	139	-1.35257E+000	-4.60998E-002	-7.28525E-001	-1.38000E+000	1.09953E-003	11	..........a	-327.68
	139	140	-1.36007E+000	-4.69759E-002	-7.42438E-001	-1.39000E+000	1.12528E-003	11	..........a	-327.68
	140	141	-1.36757E+000	-4.79498E-002	-7.57652E-001	-1.40000E+000	1.09556E-003	11	..........a	-327.68
	141	142	-1.37497E+000	-4.89260E-002	-7.74722E-001	-1.41000E+000	2.02811E-004	11	..........a	-327.68
	142	143	-1.38277E+000	-5.00088E-002	-7.92075E-001	-1.42000E+000	2.73311E-004	11	..........a	-327.68
	143	144	-1.39007E+000	-5.12164E-002	-8.11721E-001	-1.43000E+000	2.78444E-004	11	..........a	-327.68
	144	145	-1.39787E+000	-5.24402E-002	-8.31084E-001	-1.44000E+000	2.87444E-004	11	..........a	-327.68
	145	146	-1.40597E+000	-5.37954E-002	-8.52780E-001	-1.45000E+000	2.90078E-004	11	..........a	-327.68
	146	147	-1.41287E+000	-5.51602E-002	-8.75023E-001	-1.46000E+000	2.96428E-004	11	..........a	-327.68
	147	148	-1.42077E+000	-5.66858E-002	-8.98879E-001	-1.47000E+000	2.95811E-004	11	..........a	-327.68
	148	149	-1.42837E+000	-5.82463E-002	-9.23357E-001	-1.48000E+000	1.70028E-004	11	..........a	-327.68
	149	150	-1.43557E+000	-5.99251E-002	-9.50181E-001	-1.49000E+000	2.86244E-004	11	..........a	-327.68
	150	151	-1.44317E+000	-6.16398E-002	-9.76842E-001	-1.50000E+000	2.83028E-004	11	..........a	-327.68
