EXPLAIN
TAG	POTENTIODYNAMIC
TITLE	LABEL	Potentiodynamic Scan	Test Identifier
DATE	LABEL	7.2.2023	Date
TIME	LABEL	13:31:59	Time
NOTES	NOTES	1	Notes...
	
PSTAT	PSTAT	REF3000-19129	Potentiostat
VINIT	POTEN	0.00000E+000	F	Initial E (V)
VFINAL	POTEN	-1.50000E+000	F	Final E (V)
SCANRATE	QUANT	1.00000E+001	Scan Rate (mV/s)
SAMPLETIME	QUANT	1.00000E+000	Sample Period (s)
AREA	QUANT	1.00000E+000	Sample Area (cm^2)
DENSITY	QUANT	7.87000E+000	Density (g/cm^3)
EQUIV	QUANT	2.79200E+001	Equiv. Wt
IRCOMP	TOGGLE	T	IR Comp
EOC	QUANT	0	Open Circuit (V)
SEQUENCER	TOGGLE	TRUE	Run as Sequence
PSTATMODEL	IQUANT	5	Pstat Model
PSTATSECTION	LABEL	REF3000-19129	Pstat Section
PSTATSERIALNO	LABEL	19129	Pstat Serial Number
CTRLMODE	IQUANT	1	Control Mode
ELECTROMETER	IQUANT	0	RE=0 or CS=1
IESTAB	IQUANT	2	I/E Stability
CASPEED	IQUANT	4	Control Amp Speed
CONVENTION	IQUANT	1	Current Convention
ICHRANGE	IQUANT	2	Ich Range
ICHRANGEMODE	TOGGLE	T	Ich Auto Range
ICHOFFSETENABLE	TOGGLE	F	Ich Offset Enable
ICHOFFSET	QUANT	0	Ich Offset (V)
ICHFILTER	IQUANT	3	Ich Filter
VCHRANGE	IQUANT	3	Vch Range
VCHRANGEMODE	TOGGLE	T	Vch Auto Range
VCHOFFSETENABLE	TOGGLE	F	Vch Offset Enable
VCHOFFSET	QUANT	0	Vch Offset (V)
VCHFILTER	IQUANT	1	Vch Filter
ACHRANGE	IQUANT	2	Ach Range
ACHOFFSETENABLE	TOGGLE	F	Ach Offset Enable
ACHOFFSET	QUANT	0	Ach Offset (V)
ACHFILTER	IQUANT	1	Ach Filter
IERANGELOWERLIMIT	IQUANT	4	I/E Range Lower Limit
IERANGEMODE	TOGGLE	T	I/E AutoRange
IERANGE	IQUANT	11	I/E Range
POSFEEDENABLE	TOGGLE	F	Positive Feedback IR Comp
POSFEEDRESISTANCE	QUANT	0	Positive Feedback Resistance (ohm)
ACHSELECT	IQUANT	0	Ach Select
SENSECABLEID	IQUANT	14	Sense Cable ID
PWRCABLEID	IQUANT	13	Power Cable ID
DCCALDATE	LABEL	11/22/2022	DC Calibration Date
ACCALDATE	LABEL		AC Calibration Date
THERMOSELECT	IQUANT	1	Thermo Select
FRAMEWORKVERSION	QUANT	7.07	Framework Version
INSTRUMENTVERSION	LABEL	4.35	Instrument Version
COMPLIANCEVOLTAGE	IQUANT	0	Compliance Voltage
CURVE	TABLE	151
	Pt	T	Vf	Im	Vu	Sig	Ach	IERange	Over	Temp
	#	s	V vs. Ref.	A	V	V	V	#	bits	deg C
	0	1	6.32374E-004	-1.29044E-004	-1.48400E-004	-5.96046E-008	1.48828E-003	8	..........a	-327.68
	1	2	-1.01818E-002	-1.43552E-004	-1.60286E-003	-1.00001E-002	1.52949E-003	8	..........a	-327.68
	2	3	-1.74880E-002	-1.50084E-004	-2.40442E-003	-2.00001E-002	1.51774E-003	8	..........a	-327.68
	3	4	-2.83675E-002	-1.67932E-004	-2.76215E-003	-3.00001E-002	1.51801E-003	8	..........a	-327.68
	4	5	-3.92080E-002	-1.85126E-004	-2.85554E-003	-4.00001E-002	1.53864E-003	8	..........a	-327.68
	5	6	-4.91380E-002	-2.02076E-004	-3.14570E-003	-5.00001E-002	1.51366E-003	8	..........a	-327.68
	6	7	-5.87980E-002	-2.20793E-004	-3.45168E-003	-6.00001E-002	1.51563E-003	8	..........a	-327.68
	7	8	-6.90180E-002	-2.43576E-004	-3.69383E-003	-7.00001E-002	1.52379E-003	8	..........a	-327.68
	8	9	-7.88880E-002	-2.68209E-004	-4.02374E-003	-8.00001E-002	1.52634E-003	8	..........a	-327.68
	9	10	-8.90206E-002	-2.97171E-004	-4.42733E-003	-9.00001E-002	1.45209E-003	9	..........a	-327.68
	10	11	-9.88106E-002	-3.28089E-004	-4.87192E-003	-1.00000E-001	1.45459E-003	9	..........a	-327.68
	11	12	-1.08801E-001	-3.64498E-004	-5.36957E-003	-1.10000E-001	1.45779E-003	9	..........a	-327.68
	12	13	-1.18481E-001	-4.03523E-004	-5.91881E-003	-1.20000E-001	1.44544E-003	9	..........a	-327.68
	13	14	-1.28571E-001	-4.48385E-004	-6.31666E-003	-1.30000E-001	1.44921E-003	9	..........a	-327.68
	14	15	-1.38481E-001	-4.99700E-004	-7.12411E-003	-1.40000E-001	1.43754E-003	9	..........a	-327.68
	15	16	-1.48121E-001	-5.53069E-004	-7.72205E-003	-1.50000E-001	1.44379E-003	9	..........a	-327.68
	16	17	-1.58001E-001	-6.15148E-004	-8.56557E-003	-1.60000E-001	1.43291E-003	9	..........a	-327.68
	17	18	-1.67891E-001	-6.83168E-004	-9.40101E-003	-1.70000E-001	1.44399E-003	9	..........a	-327.68
	18	19	-1.77751E-001	-7.57247E-004	-1.02616E-002	-1.80000E-001	1.44004E-003	9	..........a	-327.68
	19	20	-1.87651E-001	-8.39562E-004	-1.13474E-002	-1.90000E-001	1.44583E-003	9	..........a	-327.68
	20	21	-1.97301E-001	-9.26417E-004	-1.24178E-002	-2.00000E-001	1.45426E-003	9	..........a	-327.68
	21	22	-2.07111E-001	-1.02333E-003	-1.35825E-002	-2.10000E-001	1.43349E-003	9	..........a	-327.68
	22	23	-2.17021E-001	-1.12885E-003	-1.48894E-002	-2.20000E-001	1.43344E-003	9	..........a	-327.68
	23	24	-2.26771E-001	-1.23927E-003	-1.61088E-002	-2.30000E-001	1.43238E-003	9	..........a	-327.68
	24	25	-2.36751E-001	-1.36282E-003	-1.75861E-002	-2.40000E-001	1.43466E-003	9	..........a	-327.68
	25	26	-2.46141E-001	-1.48922E-003	-1.91594E-002	-2.50000E-001	1.43038E-003	9	..........a	-327.68
	26	27	-2.56041E-001	-1.62958E-003	-2.07347E-002	-2.60000E-001	1.42176E-003	9	..........a	-327.68
	27	28	-2.65484E-001	-1.77998E-003	-2.23622E-002	-2.70000E-001	1.43394E-003	9	..........a	-327.68
	28	29	-2.75485E-001	-1.93436E-003	-2.39281E-002	-2.80000E-001	1.41671E-003	9	..........a	-327.68
	29	30	-2.85284E-001	-2.09695E-003	-2.55956E-002	-2.90000E-001	1.39806E-003	9	..........a	-327.68
	30	31	-2.95285E-001	-2.26976E-003	-2.72606E-002	-3.00000E-001	1.42008E-003	9	..........a	-327.68
	31	32	-3.04184E-001	-2.44681E-003	-2.97974E-002	-3.10000E-001	1.42116E-003	9	..........a	-327.68
	32	33	-3.13784E-001	-2.63436E-003	-3.19842E-002	-3.20000E-001	1.41343E-003	9	..........a	-327.68
	33	34	-3.23784E-001	-2.84198E-003	-3.50518E-002	-3.30000E-001	1.21028E-004	9	..........a	-327.68
	34	35	-3.33988E-001	-3.05846E-003	-3.74398E-002	-3.40000E-001	1.41194E-004	10	..........a	-327.68
	35	36	-3.44688E-001	-3.29232E-003	-3.97475E-002	-3.50000E-001	1.29061E-004	10	..........a	-327.68
	36	37	-3.54188E-001	-3.52411E-003	-4.27617E-002	-3.60000E-001	4.09277E-005	10	..........a	-327.68
	37	38	-3.64288E-001	-3.75894E-003	-4.48309E-002	-3.70000E-001	1.93728E-004	10	..........a	-327.68
	38	39	-3.74688E-001	-4.01752E-003	-4.73374E-002	-3.80000E-001	1.66878E-004	10	..........a	-327.68
	39	40	-3.83588E-001	-4.26139E-003	-5.05713E-002	-3.90000E-001	1.41378E-004	10	..........a	-327.68
	40	41	-3.93488E-001	-4.52564E-003	-5.30315E-002	-4.00000E-001	1.67028E-004	10	..........a	-327.68
	41	42	-4.03589E-001	-4.81485E-003	-5.62267E-002	-4.10000E-001	1.66828E-004	10	..........a	-327.68
	42	43	-4.12688E-001	-5.09426E-003	-5.95829E-002	-4.20000E-001	1.18311E-004	10	..........a	-327.68
	43	44	-4.23188E-001	-5.40091E-003	-6.23191E-002	-4.30000E-001	1.45494E-004	10	..........a	-327.68
	44	45	-4.32788E-001	-5.71567E-003	-6.59592E-002	-4.40000E-001	1.41544E-004	10	..........a	-327.68
	45	46	-4.41888E-001	-6.02749E-003	-6.95611E-002	-4.50000E-001	1.47111E-004	10	..........a	-327.68
	46	47	-4.51988E-001	-6.37425E-003	-7.31313E-002	-4.60000E-001	2.87611E-004	10	..........a	-327.68
	47	48	-4.61588E-001	-6.72665E-003	-7.69551E-002	-4.70000E-001	1.66411E-004	10	..........a	-327.68
	48	49	-4.70888E-001	-7.09538E-003	-8.14106E-002	-4.80000E-001	2.53978E-004	10	..........a	-327.68
	49	50	-4.80588E-001	-7.47704E-003	-8.53762E-002	-4.90000E-001	2.89511E-004	10	..........a	-327.68
	50	51	-4.90488E-001	-7.89556E-003	-8.99602E-002	-5.00000E-001	3.00694E-004	10	..........a	-327.68
	51	52	-5.00088E-001	-8.31413E-003	-9.43372E-002	-5.10000E-001	2.84244E-004	10	..........a	-327.68
	52	53	-5.09788E-001	-8.76968E-003	-9.91756E-002	-5.20000E-001	1.48661E-004	10	..........a	-327.68
	53	54	-5.18788E-001	-9.25247E-003	-1.04452E-001	-5.30000E-001	2.87278E-004	10	..........a	-327.68
	54	55	-5.27788E-001	-9.81798E-003	-1.10302E-001	-5.40000E-001	2.98078E-004	10	..........a	-327.68
	55	56	-5.35188E-001	-1.04811E-002	-1.18248E-001	-5.50000E-001	2.95378E-004	10	..........a	-327.68
	56	57	-5.43088E-001	-1.12607E-002	-1.25988E-001	-5.60000E-001	2.73011E-004	10	..........a	-327.68
	57	58	-5.50488E-001	-1.22194E-002	-1.36511E-001	-5.70000E-001	2.15344E-004	10	..........a	-327.68
	58	59	-5.58088E-001	-1.32160E-002	-1.46686E-001	-5.80000E-001	2.51561E-004	10	..........a	-327.68
	59	60	-5.66688E-001	-1.43480E-002	-1.58567E-001	-5.90000E-001	2.76078E-004	10	..........a	-327.68
	60	61	-5.75288E-001	-1.54608E-002	-1.70033E-001	-6.00000E-001	2.57428E-004	10	..........a	-327.68
	61	62	-5.84388E-001	-1.66369E-002	-1.82814E-001	-6.10000E-001	2.90511E-004	10	..........a	-327.68
	62	63	-5.93889E-001	-1.77887E-002	-1.94657E-001	-6.20000E-001	2.75328E-004	10	..........a	-327.68
	63	64	-6.03388E-001	-1.90001E-002	-2.07973E-001	-6.30000E-001	2.29128E-004	10	..........a	-327.68
	64	65	-6.13289E-001	-2.01715E-002	-2.19965E-001	-6.40000E-001	2.25994E-004	10	..........a	-327.68
	65	66	-6.23288E-001	-2.14287E-002	-2.33107E-001	-6.50000E-001	2.63328E-004	10	..........a	-327.68
	66	67	-6.32888E-001	-2.26219E-002	-2.45414E-001	-6.60000E-001	2.71244E-004	10	..........a	-327.68
	67	68	-6.42188E-001	-2.38947E-002	-2.59182E-001	-6.70000E-001	2.90928E-004	10	..........a	-327.68
	68	69	-6.51688E-001	-2.51513E-002	-2.72112E-001	-6.80000E-001	1.59411E-004	10	..........a	-327.68
	69	70	-6.60488E-001	-2.65101E-002	-2.87015E-001	-6.90000E-001	3.19344E-004	10	..........a	-327.68
	70	71	-6.69288E-001	-2.78138E-002	-3.00837E-001	-7.00000E-001	2.54028E-004	10	..........a	-327.68
	71	72	-6.78670E-001	-2.92733E-002	-3.16746E-001	-7.10000E-001	3.30078E-004	11	..........a	-327.68
	72	73	-6.87270E-001	-3.06678E-002	-3.31903E-001	-7.20000E-001	2.97694E-004	11	..........a	-327.68
	73	74	-6.96270E-001	-3.22339E-002	-3.48898E-001	-7.30000E-001	3.08744E-004	11	..........a	-327.68
	74	75	-7.04970E-001	-3.37793E-002	-3.65428E-001	-7.40000E-001	3.16144E-004	11	..........a	-327.68
	75	76	-7.14471E-001	-3.54541E-002	-3.82796E-001	-7.50000E-001	3.12394E-004	11	..........a	-327.68
	76	77	-7.23570E-001	-3.71275E-002	-4.00233E-001	-7.60000E-001	2.70478E-004	11	..........a	-327.68
	77	78	-7.32571E-001	-3.88505E-002	-4.18432E-001	-7.70000E-001	2.99561E-004	11	..........a	-327.68
	78	79	-7.40670E-001	-4.06233E-002	-4.37779E-001	-7.80000E-001	3.08628E-004	11	..........a	-327.68
	79	80	-7.50070E-001	-4.24553E-002	-4.56676E-001	-7.90000E-001	3.18678E-004	11	..........a	-327.68
	80	81	-7.57870E-001	-4.44002E-002	-4.78077E-001	-8.00000E-001	3.15911E-004	11	..........a	-327.68
	81	82	-7.66470E-001	-4.63211E-002	-4.98390E-001	-8.10000E-001	2.79911E-004	11	..........a	-327.68
	82	83	-7.75570E-001	-4.84215E-002	-5.20480E-001	-8.20000E-001	2.18028E-004	11	..........a	-327.68
	83	84	-7.84270E-001	-5.04700E-002	-5.42202E-001	-8.30000E-001	2.46611E-004	11	..........a	-327.68
	84	85	-7.92970E-001	-5.26238E-002	-5.65446E-001	-8.40000E-001	2.68428E-004	11	..........a	-327.68
	85	86	-8.01670E-001	-5.47895E-002	-5.88415E-001	-8.50000E-001	2.28461E-004	11	..........a	-327.68
	86	87	-8.11370E-001	-5.70533E-002	-6.11995E-001	-8.60000E-001	1.49844E-004	11	..........a	-327.68
	87	88	-8.20271E-001	-5.93271E-002	-6.36009E-001	-8.70000E-001	2.62028E-004	11	..........a	-327.68
	88	89	-8.29470E-001	-6.16003E-002	-6.60300E-001	-8.80000E-001	2.61311E-004	11	..........a	-327.68
	89	90	-8.38970E-001	-6.39494E-002	-6.84770E-001	-8.90000E-001	2.34028E-004	11	..........a	-327.68
	90	91	-8.48570E-001	-6.62805E-002	-7.09319E-001	-9.00000E-001	2.19261E-004	11	..........a	-327.68
	91	92	-8.57871E-001	-6.86556E-002	-7.34522E-001	-9.10000E-001	2.65494E-004	11	..........a	-327.68
	92	93	-8.68470E-001	-7.09814E-002	-7.58321E-001	-9.20000E-001	2.18678E-004	11	..........a	-327.68
	93	94	-8.79070E-001	-7.33547E-002	-7.82882E-001	-9.30000E-001	2.07661E-004	11	..........a	-327.68
	94	95	-8.89171E-001	-7.55777E-002	-8.06502E-001	-9.40000E-001	1.74111E-004	11	..........a	-327.68
	95	96	-9.00670E-001	-7.78347E-002	-8.29729E-001	-9.50000E-001	1.88294E-004	11	..........a	-327.68
	96	97	-9.12071E-001	-7.99542E-002	-8.51726E-001	-9.60000E-001	1.61628E-004	11	..........a	-327.68
	97	98	-9.23770E-001	-8.19844E-002	-8.73292E-001	-9.70000E-001	2.02578E-004	11	..........a	-327.68
	98	99	-9.36370E-001	-8.38964E-002	-8.92592E-001	-9.80000E-001	1.08394E-004	11	..........a	-327.68
	99	100	-9.49670E-001	-8.56583E-002	-9.10796E-001	-9.90000E-001	2.17044E-004	11	..........a	-327.68
	100	101	-9.63570E-001	-8.72198E-002	-9.26121E-001	-1.00000E+000	2.28944E-004	11	..........a	-327.68
	101	102	-9.77470E-001	-8.85546E-002	-9.40350E-001	-1.01000E+000	2.88611E-004	11	..........a	-327.68
	102	103	-9.92870E-001	-8.96280E-002	-9.50202E-001	-1.02000E+000	2.82694E-004	11	..........a	-327.68
	103	104	-1.00847E+000	-9.04756E-002	-9.58777E-001	-1.03000E+000	3.05544E-004	11	..........a	-327.68
	104	105	-1.02447E+000	-9.09092E-002	-9.62774E-001	-1.04000E+000	2.85978E-004	11	..........a	-327.68
	105	106	-1.04177E+000	-9.11097E-002	-9.63907E-001	-1.05000E+000	3.01678E-004	11	..........a	-327.68
	106	107	-1.05897E+000	-9.08455E-002	-9.60707E-001	-1.06000E+000	2.97261E-004	11	..........a	-327.68
	107	108	-1.07687E+000	-9.03032E-002	-9.54018E-001	-1.07000E+000	2.56894E-004	11	..........a	-327.68
	108	109	-1.09487E+000	-8.92881E-002	-9.42801E-001	-1.08000E+000	3.05061E-004	11	..........a	-327.68
	109	110	-1.11317E+000	-8.80033E-002	-9.27743E-001	-1.09000E+000	2.95544E-004	11	..........a	-327.68
	110	111	-1.13047E+000	-8.62489E-002	-9.09188E-001	-1.10000E+000	2.80644E-004	11	..........a	-327.68
	111	112	-1.14757E+000	-8.42803E-002	-8.87098E-001	-1.11000E+000	3.02128E-004	11	..........a	-327.68
	112	113	-1.16287E+000	-8.19884E-002	-8.63227E-001	-1.12000E+000	4.08261E-004	11	..........a	-327.68
	113	114	-1.17737E+000	-7.95080E-002	-8.36487E-001	-1.13000E+000	3.96528E-004	11	..........a	-327.68
	114	115	-1.18977E+000	-7.69681E-002	-8.10342E-001	-1.14000E+000	3.93561E-004	11	..........a	-327.68
	115	116	-1.20107E+000	-7.43312E-002	-7.82360E-001	-1.15000E+000	3.99728E-004	11	..........a	-327.68
	116	117	-1.21117E+000	-7.18270E-002	-7.56040E-001	-1.16000E+000	3.94128E-004	11	..........a	-327.68
	117	118	-1.22017E+000	-6.92827E-002	-7.29081E-001	-1.17000E+000	3.99744E-004	11	..........a	-327.68
	118	119	-1.22777E+000	-6.70015E-002	-7.05306E-001	-1.18000E+000	3.92461E-004	11	..........a	-327.68
	119	120	-1.23437E+000	-6.47207E-002	-6.81684E-001	-1.19000E+000	3.73344E-004	11	..........a	-327.68
	120	121	-1.24077E+000	-6.27901E-002	-6.61541E-001	-1.20000E+000	3.79278E-004	11	..........a	-327.68
	121	122	-1.24687E+000	-6.09151E-002	-6.41989E-001	-1.21000E+000	3.64594E-004	11	..........a	-327.68
	122	123	-1.25307E+000	-5.94011E-002	-6.25572E-001	-1.22000E+000	3.88111E-004	11	..........a	-327.68
	123	124	-1.25797E+000	-5.79415E-002	-6.11157E-001	-1.23000E+000	3.80078E-004	11	..........a	-327.68
	124	125	-1.26417E+000	-5.67925E-002	-5.98498E-001	-1.24000E+000	3.93578E-004	11	..........a	-327.68
	125	126	-1.26977E+000	-5.58032E-002	-5.88650E-001	-1.25000E+000	3.88778E-004	11	..........a	-327.68
	126	127	-1.27577E+000	-5.49917E-002	-5.79844E-001	-1.26000E+000	3.88828E-004	11	..........a	-327.68
	127	128	-1.28127E+000	-5.44184E-002	-5.74644E-001	-1.27000E+000	3.79811E-004	11	..........a	-327.68
	128	129	-1.28707E+000	-5.39319E-002	-5.69879E-001	-1.28000E+000	3.90528E-004	11	..........a	-327.68
	129	130	-1.29387E+000	-5.37894E-002	-5.68038E-001	-1.29000E+000	3.98394E-004	11	..........a	-327.68
	130	131	-1.29977E+000	-5.36855E-002	-5.67331E-001	-1.30000E+000	3.84828E-004	11	..........a	-327.68
	131	132	-1.30577E+000	-5.38258E-002	-5.69358E-001	-1.31000E+000	3.97178E-004	11	..........a	-327.68
	132	133	-1.31317E+000	-5.40464E-002	-5.71244E-001	-1.32000E+000	3.99861E-004	11	..........a	-327.68
	133	134	-1.31987E+000	-5.45338E-002	-5.76500E-001	-1.33000E+000	3.95211E-004	11	..........a	-327.68
	134	135	-1.32677E+000	-5.50043E-002	-5.81567E-001	-1.34000E+000	3.69911E-004	11	..........a	-327.68
	135	136	-1.33317E+000	-5.57728E-002	-5.90365E-001	-1.35000E+000	3.62278E-004	11	..........a	-327.68
	136	137	-1.34097E+000	-5.65040E-002	-5.97598E-001	-1.36000E+000	3.92544E-004	11	..........a	-327.68
	137	138	-1.34877E+000	-5.75574E-002	-6.08456E-001	-1.37000E+000	3.66228E-004	11	..........a	-327.68
	138	139	-1.35547E+000	-5.84777E-002	-6.19019E-001	-1.38000E+000	3.46311E-004	11	..........a	-327.68
	139	140	-1.36347E+000	-5.97058E-002	-6.32067E-001	-1.39000E+000	3.43194E-004	11	..........a	-327.68
	140	141	-1.37097E+000	-6.09177E-002	-6.44968E-001	-1.40000E+000	2.88944E-004	11	..........a	-327.68
	141	142	-1.37907E+000	-6.23132E-002	-6.59909E-001	-1.41000E+000	3.47894E-004	11	..........a	-327.68
	142	143	-1.38687E+000	-6.37544E-002	-6.75081E-001	-1.42000E+000	3.27978E-004	11	..........a	-327.68
	143	144	-1.39507E+000	-6.53147E-002	-6.91871E-001	-1.43000E+000	3.23494E-004	11	..........a	-327.68
	144	145	-1.40317E+000	-6.69302E-002	-7.08717E-001	-1.44000E+000	3.36794E-004	11	..........a	-327.68
	145	146	-1.41147E+000	-6.86474E-002	-7.27112E-001	-1.45000E+000	3.48094E-004	11	..........a	-327.68
	146	147	-1.41947E+000	-7.04413E-002	-7.46069E-001	-1.46000E+000	3.31544E-004	11	..........a	-327.68
	147	148	-1.42767E+000	-7.23038E-002	-7.66042E-001	-1.47000E+000	2.75078E-004	11	..........a	-327.68
	148	149	-1.43537E+000	-7.42782E-002	-7.87334E-001	-1.48000E+000	3.34244E-004	11	..........a	-327.68
	149	150	-1.44367E+000	-7.63564E-002	-8.08892E-001	-1.49000E+000	4.83394E-004	11	..........a	-327.68
	150	151	-1.45147E+000	-7.85524E-002	-8.32245E-001	-1.50000E+000	5.06111E-004	11	..........a	-327.68
