EXPLAIN
TAG	POTENTIODYNAMIC
TITLE	LABEL	Potentiodynamic Scan	Test Identifier
DATE	LABEL	7.2.2023	Date
TIME	LABEL	15:15:24	Time
NOTES	NOTES	1	Notes...
	
PSTAT	PSTAT	REF3000-19129	Potentiostat
VINIT	POTEN	0.00000E+000	F	Initial E (V)
VFINAL	POTEN	-1.50000E+000	F	Final E (V)
SCANRATE	QUANT	1.00000E+001	Scan Rate (mV/s)
SAMPLETIME	QUANT	1.00000E+000	Sample Period (s)
AREA	QUANT	1.00000E+000	Sample Area (cm^2)
DENSITY	QUANT	7.87000E+000	Density (g/cm^3)
EQUIV	QUANT	2.79200E+001	Equiv. Wt
IRCOMP	TOGGLE	T	IR Comp
EOC	QUANT	0	Open Circuit (V)
SEQUENCER	TOGGLE	TRUE	Run as Sequence
PSTATMODEL	IQUANT	5	Pstat Model
PSTATSECTION	LABEL	REF3000-19129	Pstat Section
PSTATSERIALNO	LABEL	19129	Pstat Serial Number
CTRLMODE	IQUANT	1	Control Mode
ELECTROMETER	IQUANT	0	RE=0 or CS=1
IESTAB	IQUANT	2	I/E Stability
CASPEED	IQUANT	4	Control Amp Speed
CONVENTION	IQUANT	1	Current Convention
ICHRANGE	IQUANT	2	Ich Range
ICHRANGEMODE	TOGGLE	T	Ich Auto Range
ICHOFFSETENABLE	TOGGLE	F	Ich Offset Enable
ICHOFFSET	QUANT	0	Ich Offset (V)
ICHFILTER	IQUANT	3	Ich Filter
VCHRANGE	IQUANT	3	Vch Range
VCHRANGEMODE	TOGGLE	T	Vch Auto Range
VCHOFFSETENABLE	TOGGLE	F	Vch Offset Enable
VCHOFFSET	QUANT	0	Vch Offset (V)
VCHFILTER	IQUANT	1	Vch Filter
ACHRANGE	IQUANT	2	Ach Range
ACHOFFSETENABLE	TOGGLE	F	Ach Offset Enable
ACHOFFSET	QUANT	0	Ach Offset (V)
ACHFILTER	IQUANT	1	Ach Filter
IERANGELOWERLIMIT	IQUANT	4	I/E Range Lower Limit
IERANGEMODE	TOGGLE	T	I/E AutoRange
IERANGE	IQUANT	11	I/E Range
POSFEEDENABLE	TOGGLE	F	Positive Feedback IR Comp
POSFEEDRESISTANCE	QUANT	0	Positive Feedback Resistance (ohm)
ACHSELECT	IQUANT	0	Ach Select
SENSECABLEID	IQUANT	14	Sense Cable ID
PWRCABLEID	IQUANT	13	Power Cable ID
DCCALDATE	LABEL	11/22/2022	DC Calibration Date
ACCALDATE	LABEL		AC Calibration Date
THERMOSELECT	IQUANT	1	Thermo Select
FRAMEWORKVERSION	QUANT	7.07	Framework Version
INSTRUMENTVERSION	LABEL	4.35	Instrument Version
COMPLIANCEVOLTAGE	IQUANT	0	Compliance Voltage
CURVE	TABLE	151
	Pt	T	Vf	Im	Vu	Sig	Ach	IERange	Over	Temp
	#	s	V vs. Ref.	A	V	V	V	#	bits	deg C
	0	1	3.42971E-003	-6.33787E-004	-2.21717E-002	-5.96046E-008	4.84277E-005	9	..........a	-327.68
	1	2	-7.68447E-003	-6.35691E-004	-2.12255E-002	-1.00001E-002	4.86111E-005	9	..........a	-327.68
	2	3	-2.00906E-002	-6.51494E-004	-2.18954E-002	-2.00001E-002	4.81111E-005	9	..........a	-327.68
	3	4	-2.91606E-002	-6.57175E-004	-2.18150E-002	-3.00001E-002	4.83277E-005	9	..........a	-327.68
	4	5	-3.94006E-002	-6.72887E-004	-2.22871E-002	-4.00001E-002	4.83611E-005	9	..........a	-327.68
	5	6	-4.88706E-002	-6.87654E-004	-2.25618E-002	-5.00001E-002	4.86111E-005	9	..........a	-327.68
	6	7	-5.85906E-002	-7.07390E-004	-2.33186E-002	-6.00001E-002	4.84444E-005	9	..........a	-327.68
	7	8	-6.81106E-002	-7.28282E-004	-2.40333E-002	-7.00001E-002	4.78944E-005	9	..........a	-327.68
	8	9	-7.83406E-002	-7.52352E-004	-2.45407E-002	-8.00001E-002	4.83777E-005	9	..........a	-327.68
	9	10	-8.84606E-002	-7.77896E-004	-2.51314E-002	-9.00001E-002	4.86277E-005	9	..........a	-327.68
	10	11	-9.81706E-002	-8.03684E-004	-2.59110E-002	-1.00000E-001	4.85444E-005	9	..........a	-327.68
	11	12	-1.08371E-001	-8.31116E-004	-2.64585E-002	-1.10000E-001	4.84277E-005	9	..........a	-327.68
	12	13	-1.18171E-001	-8.59514E-004	-2.73753E-002	-1.20000E-001	4.79944E-005	9	..........a	-327.68
	13	14	-1.27561E-001	-8.86853E-004	-2.84800E-002	-1.30000E-001	4.82944E-005	9	..........a	-327.68
	14	15	-1.38331E-001	-9.17558E-004	-2.87350E-002	-1.40000E-001	3.19061E-004	9	..........a	-327.68
	15	16	-1.48521E-001	-9.48022E-004	-2.95311E-002	-1.50000E-001	3.43078E-004	9	..........a	-327.68
	16	17	-1.57891E-001	-9.75058E-004	-3.03964E-002	-1.60000E-001	3.56228E-004	9	..........a	-327.68
	17	18	-1.68241E-001	-1.00501E-003	-3.07752E-002	-1.70000E-001	3.26061E-004	9	..........a	-327.68
	18	19	-1.78101E-001	-1.03534E-003	-3.18941E-002	-1.80000E-001	3.43361E-004	9	..........a	-327.68
	19	20	-1.87681E-001	-1.06211E-003	-3.25437E-002	-1.90000E-001	3.34978E-004	9	..........a	-327.68
	20	21	-1.97871E-001	-1.09437E-003	-3.35770E-002	-2.00000E-001	3.09044E-004	9	..........a	-327.68
	21	22	-2.07791E-001	-1.12264E-003	-3.41546E-002	-2.10000E-001	3.13761E-004	9	..........a	-327.68
	22	23	-2.17881E-001	-1.15529E-003	-3.50484E-002	-2.20000E-001	3.31278E-004	9	..........a	-327.68
	23	24	-2.28021E-001	-1.18702E-003	-3.56365E-002	-2.30000E-001	3.23161E-004	9	..........a	-327.68
	24	25	-2.37411E-001	-1.22027E-003	-3.69632E-002	-2.40000E-001	3.20594E-004	9	..........a	-327.68
	25	26	-2.46984E-001	-1.25324E-003	-3.80780E-002	-2.50000E-001	3.34961E-004	9	..........a	-327.68
	26	27	-2.57884E-001	-1.29197E-003	-3.84413E-002	-2.60000E-001	3.31444E-004	9	..........a	-327.68
	27	28	-2.67684E-001	-1.33087E-003	-3.95461E-002	-2.70000E-001	3.40878E-004	9	..........a	-327.68
	28	29	-2.76584E-001	-1.36724E-003	-4.11815E-002	-2.80000E-001	3.34161E-004	9	..........a	-327.68
	29	30	-2.87284E-001	-1.40940E-003	-4.14643E-002	-2.90000E-001	3.09228E-004	9	..........a	-327.68
	30	31	-2.97785E-001	-1.45817E-003	-4.26775E-002	-3.00000E-001	3.09311E-004	9	..........a	-327.68
	31	32	-3.06984E-001	-1.49798E-003	-4.37581E-002	-3.10000E-001	2.98994E-004	9	..........a	-327.68
	32	33	-3.16684E-001	-1.54851E-003	-4.52559E-002	-3.20000E-001	3.07028E-004	9	..........a	-327.68
	33	34	-3.26984E-001	-1.59924E-003	-4.59480E-002	-3.30000E-001	3.06361E-004	9	..........a	-327.68
	34	35	-3.36284E-001	-1.65754E-003	-4.81530E-002	-3.40000E-001	2.83561E-004	9	..........a	-327.68
	35	36	-3.46184E-001	-1.71248E-003	-4.88572E-002	-3.50000E-001	2.99494E-004	9	..........a	-327.68
	36	37	-3.55784E-001	-1.78299E-003	-5.15777E-002	-3.60000E-001	2.89494E-004	9	..........a	-327.68
	37	38	-3.64884E-001	-1.84316E-003	-5.29666E-002	-3.70000E-001	3.01144E-004	9	..........a	-327.68
	38	39	-3.75584E-001	-1.92631E-003	-5.50272E-002	-3.80000E-001	2.81511E-004	9	..........a	-327.68
	39	40	-3.84984E-001	-2.00270E-003	-5.71242E-002	-3.90000E-001	2.78811E-004	9	..........a	-327.68
	40	41	-3.95284E-001	-2.08787E-003	-5.87387E-002	-4.00000E-001	3.01511E-004	9	..........a	-327.68
	41	42	-4.04584E-001	-2.17643E-003	-6.14675E-002	-4.10000E-001	3.04011E-004	9	..........a	-327.68
	42	43	-4.14084E-001	-2.26734E-003	-6.36457E-002	-4.20000E-001	2.97711E-004	9	..........a	-327.68
	43	44	-4.24784E-001	-2.37186E-003	-6.56251E-002	-4.30000E-001	2.80628E-004	9	..........a	-327.68
	44	45	-4.33884E-001	-2.47499E-003	-6.88247E-002	-4.40000E-001	2.86678E-004	9	..........a	-327.68
	45	46	-4.42984E-001	-2.57905E-003	-7.16146E-002	-4.50000E-001	2.73344E-004	9	..........a	-327.68
	46	47	-4.53084E-001	-2.69727E-003	-7.45076E-002	-4.60000E-001	2.93861E-004	9	..........a	-327.68
	47	48	-4.62888E-001	-2.81774E-003	-7.76960E-002	-4.70000E-001	3.01044E-004	10	..........a	-327.68
	48	49	-4.72688E-001	-2.94156E-003	-8.09048E-002	-4.80000E-001	3.01644E-004	10	..........a	-327.68
	49	50	-4.82588E-001	-3.07254E-003	-8.42834E-002	-4.90000E-001	2.96111E-004	10	..........a	-327.68
	50	51	-4.92188E-001	-3.20875E-003	-8.79023E-002	-5.00000E-001	2.90761E-004	10	..........a	-327.68
	51	52	-5.01788E-001	-3.34802E-003	-9.14751E-002	-5.10000E-001	3.04678E-004	10	..........a	-327.68
	52	53	-5.12088E-001	-3.50060E-003	-9.49012E-002	-5.20000E-001	3.10828E-004	10	..........a	-327.68
	53	54	-5.21788E-001	-3.65336E-003	-9.86935E-002	-5.30000E-001	2.08561E-004	10	..........a	-327.68
	54	55	-5.31789E-001	-3.80946E-003	-1.02262E-001	-5.40000E-001	3.04144E-004	10	..........a	-327.68
	55	56	-5.41389E-001	-3.97541E-003	-1.06318E-001	-5.50000E-001	3.00294E-004	10	..........a	-327.68
	56	57	-5.51188E-001	-4.14206E-003	-1.10077E-001	-5.60000E-001	3.35778E-004	10	..........a	-327.68
	57	58	-5.59988E-001	-4.32266E-003	-1.15253E-001	-5.70000E-001	3.19211E-004	10	..........a	-327.68
	58	59	-5.70688E-001	-4.50523E-003	-1.18219E-001	-5.80000E-001	3.25311E-004	10	..........a	-327.68
	59	60	-5.80388E-001	-4.71472E-003	-1.23811E-001	-5.90000E-001	2.96828E-004	10	..........a	-327.68
	60	61	-5.89288E-001	-4.89608E-003	-1.27886E-001	-6.00000E-001	3.07244E-004	10	..........a	-327.68
	61	62	-5.99388E-001	-5.12251E-003	-1.33215E-001	-6.10000E-001	2.96178E-004	10	..........a	-327.68
	62	63	-6.08988E-001	-5.33704E-003	-1.37776E-001	-6.20000E-001	3.10878E-004	10	..........a	-327.68
	63	64	-6.19088E-001	-5.57154E-003	-1.43041E-001	-6.30000E-001	1.80611E-004	10	..........a	-327.68
	64	65	-6.27888E-001	-5.80167E-003	-1.48594E-001	-6.40000E-001	2.61961E-004	10	..........a	-327.68
	65	66	-6.37089E-001	-6.05302E-003	-1.54598E-001	-6.50000E-001	2.66311E-004	10	..........a	-327.68
	66	67	-6.47289E-001	-6.31198E-003	-1.60005E-001	-6.60000E-001	2.62744E-004	10	..........a	-327.68
	67	68	-6.57288E-001	-6.59013E-003	-1.65897E-001	-6.70000E-001	2.10128E-004	10	..........a	-327.68
	68	69	-6.66389E-001	-6.86516E-003	-1.72319E-001	-6.80000E-001	3.04294E-004	10	..........a	-327.68
	69	70	-6.76088E-001	-7.15784E-003	-1.78571E-001	-6.90000E-001	2.98311E-004	10	..........a	-327.68
	70	71	-6.86288E-001	-7.46094E-003	-1.84661E-001	-7.00000E-001	3.05994E-004	10	..........a	-327.68
	71	72	-6.95588E-001	-7.77144E-003	-1.91524E-001	-7.10000E-001	2.97728E-004	10	..........a	-327.68
	72	73	-7.05088E-001	-8.09089E-003	-1.98232E-001	-7.20000E-001	2.91044E-004	10	..........a	-327.68
	73	74	-7.15488E-001	-8.42722E-003	-2.04560E-001	-7.30000E-001	2.96578E-004	10	..........a	-327.68
	74	75	-7.24588E-001	-8.76830E-003	-2.12242E-001	-7.40000E-001	2.00311E-004	10	..........a	-327.68
	75	76	-7.33788E-001	-9.10948E-003	-2.19170E-001	-7.50000E-001	3.07294E-004	10	..........a	-327.68
	76	77	-7.44188E-001	-9.48349E-003	-2.26544E-001	-7.60000E-001	3.16761E-004	10	..........a	-327.68
	77	78	-7.53689E-001	-9.85567E-003	-2.34044E-001	-7.70000E-001	2.80244E-004	10	..........a	-327.68
	78	79	-7.63588E-001	-1.02406E-002	-2.41364E-001	-7.80000E-001	2.83528E-004	10	..........a	-327.68
	79	80	-7.73188E-001	-1.06363E-002	-2.49205E-001	-7.90000E-001	3.32961E-004	10	..........a	-327.68
	80	81	-7.83288E-001	-1.10382E-002	-2.56365E-001	-8.00000E-001	3.11978E-004	10	..........a	-327.68
	81	82	-7.93088E-001	-1.14639E-002	-2.64430E-001	-8.10000E-001	1.89961E-004	10	..........a	-327.68
	82	83	-8.02488E-001	-1.18772E-002	-2.72053E-001	-8.20000E-001	3.02761E-004	10	..........a	-327.68
	83	84	-8.12688E-001	-1.23272E-002	-2.80142E-001	-8.30000E-001	2.90028E-004	10	..........a	-327.68
	84	85	-8.22688E-001	-1.27684E-002	-2.87517E-001	-8.40000E-001	2.87861E-004	10	..........a	-327.68
	85	86	-8.32088E-001	-1.32366E-002	-2.96333E-001	-8.50000E-001	3.07694E-004	10	..........a	-327.68
	86	87	-8.41688E-001	-1.36771E-002	-3.03970E-001	-8.60000E-001	3.19411E-004	10	..........a	-327.68
	87	88	-8.52088E-001	-1.41717E-002	-3.12272E-001	-8.70000E-001	2.91194E-004	10	..........a	-327.68
	88	89	-8.62089E-001	-1.46469E-002	-3.19978E-001	-8.80000E-001	2.88828E-004	10	..........a	-327.68
	89	90	-8.71588E-001	-1.51454E-002	-3.28757E-001	-8.90000E-001	2.89061E-004	10	..........a	-327.68
	90	91	-8.81888E-001	-1.56290E-002	-3.36225E-001	-9.00000E-001	3.48261E-004	10	..........a	-327.68
	91	92	-8.92088E-001	-1.61425E-002	-3.44656E-001	-9.10000E-001	3.40494E-004	10	..........a	-327.68
	92	93	-9.01988E-001	-1.66413E-002	-3.52244E-001	-9.20000E-001	3.31028E-004	10	..........a	-327.68
	93	94	-9.12788E-001	-1.71635E-002	-3.59965E-001	-9.30000E-001	3.33928E-004	10	..........a	-327.68
	94	95	-9.22188E-001	-1.76646E-002	-3.68092E-001	-9.40000E-001	3.20894E-004	10	..........a	-327.68
	95	96	-9.32688E-001	-1.81903E-002	-3.75201E-001	-9.50000E-001	3.36428E-004	10	..........a	-327.68
	96	97	-9.42688E-001	-1.87243E-002	-3.83208E-001	-9.60000E-001	3.36878E-004	10	..........a	-327.68
	97	98	-9.52588E-001	-1.92613E-002	-3.89937E-001	-9.70000E-001	1.14184E-003	10	..........a	-327.68
	98	99	-9.62788E-001	-1.98229E-002	-3.97803E-001	-9.80000E-001	1.10279E-003	10	..........a	-327.68
	99	100	-9.72188E-001	-2.03510E-002	-4.05692E-001	-9.90000E-001	7.63444E-005	10	..........a	-327.68
	100	101	-9.81688E-001	-2.09386E-002	-4.13935E-001	-1.00000E+000	1.04811E-004	10	..........a	-327.68
	101	102	-9.92088E-001	-2.15414E-002	-4.21447E-001	-1.01000E+000	1.13011E-004	10	..........a	-327.68
	102	103	-1.00169E+000	-2.21720E-002	-4.29996E-001	-1.02000E+000	1.18094E-004	10	..........a	-327.68
	103	104	-1.01059E+000	-2.27960E-002	-4.38679E-001	-1.03000E+000	1.51144E-004	10	..........a	-327.68
	104	105	-1.02109E+000	-2.34772E-002	-4.46545E-001	-1.04000E+000	9.12111E-005	10	..........a	-327.68
	105	106	-1.03099E+000	-2.42011E-002	-4.55419E-001	-1.05000E+000	1.18144E-004	10	..........a	-327.68
	106	107	-1.04029E+000	-2.49121E-002	-4.63815E-001	-1.06000E+000	2.84394E-004	10	..........a	-327.68
	107	108	-1.05049E+000	-2.56939E-002	-4.72504E-001	-1.07000E+000	2.62894E-004	10	..........a	-327.68
	108	109	-1.05889E+000	-2.64858E-002	-4.82320E-001	-1.08000E+000	2.63944E-004	10	..........a	-327.68
	109	110	-1.06849E+000	-2.73240E-002	-4.91372E-001	-1.09000E+000	1.81344E-004	10	..........a	-327.68
	110	111	-1.07877E+000	-2.82424E-002	-5.01260E-001	-1.10000E+000	2.50778E-004	11	..........a	-327.68
	111	112	-1.08867E+000	-2.91679E-002	-5.10388E-001	-1.11000E+000	2.53694E-004	11	..........a	-327.68
	112	113	-1.09887E+000	-3.02060E-002	-5.20039E-001	-1.12000E+000	2.25778E-004	11	..........a	-327.68
	113	114	-1.10857E+000	-3.12693E-002	-5.29545E-001	-1.13000E+000	2.78411E-004	11	..........a	-327.68
	114	115	-1.11857E+000	-3.23966E-002	-5.39044E-001	-1.14000E+000	1.93328E-004	11	..........a	-327.68
	115	116	-1.12937E+000	-3.35707E-002	-5.47793E-001	-1.15000E+000	2.78244E-004	11	..........a	-327.68
	116	117	-1.14027E+000	-3.47496E-002	-5.56343E-001	-1.16000E+000	2.75978E-004	11	..........a	-327.68
	117	118	-1.15107E+000	-3.59500E-002	-5.64269E-001	-1.17000E+000	2.48494E-004	11	..........a	-327.68
	118	119	-1.16237E+000	-3.71506E-002	-5.71464E-001	-1.18000E+000	2.28294E-004	11	..........a	-327.68
	119	120	-1.17347E+000	-3.83538E-002	-5.78190E-001	-1.19000E+000	2.63228E-004	11	..........a	-327.68
	120	121	-1.18477E+000	-3.95298E-002	-5.84168E-001	-1.20000E+000	2.84778E-004	11	..........a	-327.68
	121	122	-1.19677E+000	-4.06527E-002	-5.88952E-001	-1.21000E+000	2.41611E-004	11	..........a	-327.68
	122	123	-1.20887E+000	-4.17511E-002	-5.92828E-001	-1.22000E+000	2.97994E-004	11	..........a	-327.68
	123	124	-1.22137E+000	-4.27397E-002	-5.95094E-001	-1.23000E+000	2.78861E-004	11	..........a	-327.68
	124	125	-1.23437E+000	-4.36277E-002	-5.95769E-001	-1.24000E+000	2.42861E-004	11	..........a	-327.68
	125	126	-1.24637E+000	-4.43821E-002	-5.96049E-001	-1.25000E+000	2.96494E-004	11	..........a	-327.68
	126	127	-1.26027E+000	-4.49255E-002	-5.92892E-001	-1.26000E+000	2.87078E-004	11	..........a	-327.68
	127	128	-1.27267E+000	-4.53722E-002	-5.90650E-001	-1.27000E+000	2.20211E-004	11	..........a	-327.68
	128	129	-1.28577E+000	-4.55055E-002	-5.84484E-001	-1.28000E+000	1.24494E-004	11	..........a	-327.68
	129	130	-1.29907E+000	-4.56124E-002	-5.78999E-001	-1.29000E+000	2.80894E-004	11	..........a	-327.68
	130	131	-1.31107E+000	-4.53953E-002	-5.70799E-001	-1.30000E+000	1.75628E-004	11	..........a	-327.68
	131	132	-1.32357E+000	-4.51356E-002	-5.62744E-001	-1.31000E+000	2.27728E-004	11	..........a	-327.68
	132	133	-1.33507E+000	-4.46647E-002	-5.53035E-001	-1.32000E+000	2.91211E-004	11	..........a	-327.68
	133	134	-1.34707E+000	-4.41639E-002	-5.43056E-001	-1.33000E+000	1.65161E-004	11	..........a	-327.68
	134	135	-1.35757E+000	-4.35337E-002	-5.32772E-001	-1.34000E+000	2.46278E-004	11	..........a	-327.68
	135	136	-1.36767E+000	-4.28798E-002	-5.22666E-001	-1.35000E+000	1.86811E-004	11	..........a	-327.68
	136	137	-1.37787E+000	-4.21888E-002	-5.12179E-001	-1.36000E+000	2.46528E-004	11	..........a	-327.68
	137	138	-1.38737E+000	-4.15235E-002	-5.02721E-001	-1.37000E+000	2.27144E-004	11	..........a	-327.68
	138	139	-1.39647E+000	-4.08035E-002	-4.93055E-001	-1.38000E+000	2.40011E-004	11	..........a	-327.68
	139	140	-1.40607E+000	-4.01757E-002	-4.83978E-001	-1.39000E+000	2.62344E-004	11	..........a	-327.68
	140	141	-1.41467E+000	-3.95446E-002	-4.75618E-001	-1.40000E+000	2.55961E-004	11	..........a	-327.68
	141	142	-1.42367E+000	-3.89515E-002	-4.67651E-001	-1.41000E+000	2.28044E-004	11	..........a	-327.68
	142	143	-1.43247E+000	-3.84188E-002	-4.60321E-001	-1.42000E+000	2.25028E-004	11	..........a	-327.68
	143	144	-1.44087E+000	-3.79226E-002	-4.54200E-001	-1.43000E+000	2.26878E-004	11	..........a	-327.68
	144	145	-1.44877E+000	-3.74677E-002	-4.48728E-001	-1.44000E+000	2.19878E-004	11	..........a	-327.68
	145	146	-1.45777E+000	-3.71234E-002	-4.43800E-001	-1.45000E+000	2.18244E-004	11	..........a	-327.68
	146	147	-1.46667E+000	-3.68069E-002	-4.39501E-001	-1.46000E+000	2.29711E-004	11	..........a	-327.68
	147	148	-1.47457E+000	-3.65451E-002	-4.36522E-001	-1.47000E+000	1.59594E-004	11	..........a	-327.68
	148	149	-1.48367E+000	-3.63145E-002	-4.33121E-001	-1.48000E+000	2.39228E-004	11	..........a	-327.68
	149	150	-1.49197E+000	-3.62034E-002	-4.31798E-001	-1.49000E+000	1.02878E-004	11	..........a	-327.68
	150	151	-1.49997E+000	-3.60820E-002	-4.30355E-001	-1.50000E+000	1.12128E-004	11	..........a	-327.68
